t,raw,filtered,bpm
0.002773284912109375,0.53,0.11,109.0
0.003830432891845703,0.53,0.11,109.0
0.005773305892944336,0.61,0.11,109.0
0.006870746612548828,0.62,0.08,109.0
0.008799552917480469,0.77,0.08,109.0
0.009880304336547852,0.77,0.08,109.0
0.01189279556274414,0.77,0.08,109.0
0.013030290603637695,0.69,0.06,109.0
0.014812469482421875,0.69,0.06,109.0
0.01586747169494629,0.68,0.06,109.0
0.017841815948486328,0.66,0.02,109.0
0.01976919174194336,0.58,0.02,109.0
0.02084946632385254,0.58,0.02,109.0
0.022799253463745117,0.58,0.02,109.0
0.0239255428314209,0.72,-0.01,109.0
0.02584671974182129,0.73,-0.01,109.0
0.02778005599975586,0.73,-0.01,109.0
0.028946876525878906,0.76,-0.03,109.0
0.030788660049438477,0.82,-0.03,109.0
0.03186678886413574,0.82,-0.03,109.0
0.03390359878540039,0.81,-0.03,109.0
0.03578639030456543,0.69,-0.04,109.0
0.036859989166259766,0.68,-0.04,109.0
0.038842201232910156,0.68,-0.04,109.0
0.040831804275512695,0.72,-0.04,109.0
0.041846513748168945,0.73,-0.04,109.0
0.04381990432739258,0.73,-0.04,109.0
0.04578995704650879,0.73,-0.04,109.0
0.04681539535522461,0.8,-0.04,109.0
0.048783063888549805,0.91,-0.05,109.0
0.04985499382019043,0.91,-0.05,109.0
0.051808834075927734,0.88,-0.05,109.0
0.05381202697753906,0.88,-0.05,109.0
0.05484938621520996,0.88,-0.05,109.0
0.05686140060424805,0.71,-0.05,109.0
0.05876612663269043,0.71,-0.05,109.0
0.059926509857177734,0.71,-0.05,109.0
0.061868906021118164,0.71,-0.05,109.0
0.06291317939758301,0.77,-0.05,109.0
0.06482863426208496,0.78,-0.05,109.0
0.06680488586425781,0.86,-0.04,109.0
0.07801604270935059,0.0,-0.02,109.0
0.07982635498046875,0.74,-0.02,109.0
0.0817875862121582,0.75,-0.02,109.0
0.08285760879516602,0.75,-0.02,109.0
0.08481931686401367,0.81,-0.02,109.0
0.09391093254089355,0.0,-0.06,109.0
0.0957784652709961,0.76,-0.06,109.0
0.09693312644958496,0.75,-0.06,109.0
0.09882140159606934,0.75,-0.06,109.0
0.10081219673156738,0.7,-0.06,109.0
0.10184717178344727,0.8,-0.01,109.0
0.10392880439758301,0.81,-0.01,109.0
0.10487890243530273,0.81,-0.01,109.0
0.10681009292602539,0.81,0.12,109.0
0.10879707336425781,0.93,0.12,109.0
0.1098480224609375,0.93,0.12,109.0
0.11180472373962402,0.93,0.12,109.0
0.11293816566467285,0.81,0.21,109.0
0.11483621597290039,0.81,0.21,109.0
0.11586141586303711,0.8,0.21,109.0
0.11779665946960449,0.77,0.25,109.0
0.11899733543395996,0.67,0.3,109.0
0.12081003189086914,0.67,0.3,109.0
0.12277936935424805,0.67,0.3,109.0
0.12389612197875977,0.82,0.24,109.0
0.12576889991760254,0.82,0.24,109.0
0.12689900398254395,0.82,0.24,109.0
0.12897229194641113,0.82,0.24,109.0
0.12984490394592285,0.86,0.13,109.0
0.13179302215576172,0.86,0.13,109.0
0.13291525840759277,0.83,0.06,109.0
0.1348280906677246,0.65,-0.12,109.0
0.13679242134094238,0.65,-0.12,109.0
0.13785266876220703,0.65,-0.12,109.0
0.13980960845947266,0.65,-0.12,109.0
0.1408705711364746,0.63,-0.17,109.0
0.14283466339111328,0.63,-0.17,109.0
0.14481282234191895,0.67,-0.2,109.0
0.1458573341369629,0.81,-0.23,109.0
0.1478137969970703,0.81,-0.23,109.0
0.14982295036315918,0.81,-0.23,109.0
0.15094590187072754,0.81,-0.19,109.0
0.15279817581176758,0.78,-0.19,109.0
0.15386533737182617,0.78,-0.19,109.0
0.1562025547027588,0.72,-0.17,109.0
0.15781378746032715,0.55,-0.09,109.0
0.15887188911437988,0.55,-0.09,109.0
0.16084527969360352,0.55,-0.09,109.0
0.1627812385559082,0.61,-0.06,109.0
0.16385293006896973,0.61,-0.06,109.0
0.16585230827331543,0.61,-0.06,109.0
0.1677837371826172,0.65,-0.03,109.0
0.16890406608581543,0.74,-0.03,109.0
0.17084336280822754,0.74,-0.03,109.0
0.17196083068847656,0.74,-0.03,109.0
0.17385220527648926,0.61,-0.02,109.0
0.17582058906555176,0.61,-0.02,109.0
0.17688894271850586,0.61,-0.02,109.0
0.17886734008789062,0.53,-0.02,109.0
0.18077898025512695,0.53,-0.02,109.0
0.18186187744140625,0.53,-0.02,109.0
0.18380117416381836,0.53,-0.02,109.0
0.18488216400146484,0.61,-0.01,109.0
0.1868293285369873,0.61,-0.01,109.0
0.18880414962768555,0.66,-0.0,109.0
0.18986773490905762,0.66,0.02,109.0
0.19188737869262695,0.66,0.02,109.0
0.1930997371673584,0.66,0.02,109.0
0.1948680877685547,0.66,0.02,109.0
0.19591212272644043,0.55,0.02,109.0
0.19789814949035645,0.55,0.02,109.0
0.19980335235595703,0.49,0.03,109.0
0.200927734375,0.53,0.01,109.0
0.20283222198486328,0.54,0.01,109.0
0.2039048671722412,0.54,0.01,109.0
0.20585870742797852,0.54,0.01,109.0
0.2069377899169922,0.64,-0.0,109.0
0.20888328552246094,0.64,-0.0,109.0
0.21095609664916992,0.67,-0.01,109.0
0.2118854522705078,0.57,-0.03,109.0
0.21384000778198242,0.56,-0.03,109.0
0.2158031463623047,0.56,-0.03,109.0
0.21698212623596191,0.56,-0.03,109.0
0.21889948844909668,0.44,-0.03,109.0
0.2199862003326416,0.44,-0.03,109.0
0.2218329906463623,0.43,-0.02,109.0
0.22380304336547852,0.56,-0.01,109.0
0.22484540939331055,0.57,-0.01,109.0
0.22682738304138184,0.57,-0.01,109.0
0.23777985572814941,0.0,0.03,109.0
0.23894834518432617,0.45,0.03,109.0
0.2407984733581543,0.45,0.03,109.0
0.2418498992919922,0.45,0.03,109.0
0.24384474754333496,0.5,0.03,109.0
0.24492931365966797,0.51,0.03,109.0
0.24685430526733398,0.58,0.01,109.0
0.24785995483398438,0.66,-0.0,109.0
0.24994373321533203,0.66,-0.0,109.0
0.25179171562194824,0.66,-0.02,109.0
0.25289344787597656,0.66,-0.02,109.0
0.25485658645629883,0.54,-0.05,109.0
0.2568013668060303,0.54,-0.05,109.0
0.2578561305999756,0.53,-0.05,109.0
0.2598435878753662,0.5,-0.07,109.0
0.26087069511413574,0.51,-0.07,109.0
0.2628319263458252,0.51,-0.07,109.0
0.26482105255126953,0.51,-0.08,109.0
0.2658805847167969,0.62,-0.08,109.0
0.2678408622741699,0.62,-0.08,109.0
0.26980066299438477,0.67,-0.07,109.0
0.2708470821380615,0.65,-0.06,109.0
0.2808868885040283,0.0,-0.02,109.0
0.281902551651001,0.58,-0.02,109.0
0.2838714122772217,0.58,-0.02,109.0
0.28579068183898926,0.58,-0.02,109.0
0.28693127632141113,0.65,-0.02,109.0
0.2888202667236328,0.68,-0.01,109.0
0.2908165454864502,0.73,-0.01,109.0
0.2918548583984375,0.73,-0.01,109.0
0.2938346862792969,0.72,-0.01,109.0
0.29576635360717773,0.55,-0.0,109.0
0.29703688621520996,0.55,-0.0,109.0
0.2988560199737549,0.55,-0.0,109.0
0.2998673915863037,0.53,0.01,109.0
0.3018300533294678,0.53,0.01,109.0
0.30289196968078613,0.53,0.01,109.0
0.304837703704834,0.56,0.01,109.0
0.31586527824401855,0.0,0.01,109.0
0.3177969455718994,0.5,0.01,109.0
0.31887364387512207,0.5,0.01,109.0
0.32080936431884766,0.5,0.01,109.0
0.3218727111816406,0.51,0.01,109.0
0.323819637298584,0.51,0.01,109.0
0.3248860836029053,0.56,0.01,109.0
0.3268563747406006,0.65,0.02,109.0
0.3279078006744385,0.65,0.02,109.0
0.32982897758483887,0.68,0.02,109.0
0.3317859172821045,0.68,0.04,109.0
0.33284497261047363,0.57,0.04,109.0
0.33483314514160156,0.57,0.04,109.0
0.3358480930328369,0.57,0.04,109.0
0.33782100677490234,0.45,0.05,109.0
0.33887791633605957,0.45,0.05,109.0
0.3408181667327881,0.45,0.05,109.0
0.34191322326660156,0.45,0.05,109.0
0.3438456058502197,0.59,0.05,109.0
0.344984769821167,0.6,0.05,109.0
0.34683799743652344,0.6,0.05,109.0
0.348787784576416,0.68,0.06,109.0
0.3498251438140869,0.68,0.06,109.0
0.35183024406433105,0.68,0.06,109.0
0.35286402702331543,0.68,0.06,109.0
0.3548002243041992,0.52,0.06,109.0
0.3559694290161133,0.51,0.06,109.0
0.3578684329986572,0.51,0.06,109.0
0.35889697074890137,0.46,0.06,109.0
0.3608362674713135,0.46,0.06,109.0
0.3618943691253662,0.46,0.06,109.0
0.36382627487182617,0.48,0.07,109.0
0.36579012870788574,0.64,0.07,109.0
0.36682891845703125,0.64,0.07,109.0
0.36881017684936523,0.65,0.07,109.0
0.3699178695678711,0.67,0.07,109.0
0.3718290328979492,0.67,0.07,109.0
0.37285733222961426,0.62,0.07,109.0
0.37480688095092773,0.62,0.07,109.0
0.37589311599731445,0.48,0.07,109.0
0.37784337997436523,0.48,0.07,109.0
0.3789033889770508,0.48,0.07,109.0
0.3808739185333252,0.47,0.06,109.0
0.3827803134918213,0.55,0.06,109.0
0.3838655948638916,0.55,0.06,109.0
0.3858025074005127,0.56,0.06,109.0
0.3869154453277588,0.67,0.05,109.0
0.3888082504272461,0.67,0.05,109.0
0.38992953300476074,0.67,0.05,109.0
0.391815185546875,0.67,0.04,109.0
0.3937981128692627,0.56,0.04,109.0
0.3948495388031006,0.56,0.04,109.0
0.3958854675292969,0.56,0.04,109.0
0.3978400230407715,0.5,0.04,109.0
0.39979004859924316,0.5,0.04,109.0
0.4009101390838623,0.51,0.04,109.0
0.4028162956237793,0.52,0.04,109.0
0.4039442539215088,0.75,0.04,109.0
0.4058248996734619,0.76,0.04,109.0
0.4068748950958252,0.76,0.04,109.0
0.4088096618652344,0.96,0.03,109.0
0.4098827838897705,0.96,0.03,109.0
0.41183900833129883,0.96,0.03,109.0
0.4129505157470703,0.96,0.03,109.0
0.41487741470336914,0.92,0.02,109.0
0.4161643981933594,0.92,0.02,109.0
0.4178323745727539,0.85,0.02,109.0
0.41979384422302246,0.72,0.01,109.0
0.4298877716064453,0.0,0.01,109.0
0.4318070411682129,0.53,0.01,109.0
0.43287229537963867,0.53,0.01,109.0
0.43483829498291016,0.53,0.01,109.0
0.43589186668395996,0.44,0.01,109.0
0.43784499168395996,0.43,0.01,109.0
0.43888306617736816,0.38,0.01,109.0
0.44086742401123047,0.33,0.01,109.0
0.4419670104980469,0.33,0.01,109.0
0.4439046382904053,0.35,0.01,109.0
0.44579529762268066,0.53,0.01,109.0
0.44685888290405273,0.53,0.01,109.0
0.455826997756958,0.0,-0.02,109.0
0.45696330070495605,0.42,-0.02,109.0
0.4588930606842041,0.42,-0.02,109.0
0.4607985019683838,0.42,-0.02,109.0
0.4619410037994385,0.43,-0.02,109.0
0.4638247489929199,0.54,-0.02,109.0
0.4657909870147705,0.54,-0.02,109.0
0.46686220169067383,0.61,-0.02,109.0
0.4688262939453125,0.64,-0.02,109.0
0.4699366092681885,0.64,-0.02,109.0
0.47185516357421875,0.64,-0.02,109.0
0.4789738655090332,0.0,-0.02,109.0
0.48087120056152344,0.45,-0.02,109.0
0.48279690742492676,0.45,-0.02,109.0
0.4838745594024658,0.45,-0.02,109.0
0.4858272075653076,0.6,-0.03,109.0
0.4877896308898926,0.6,-0.03,109.0
0.48891496658325195,0.6,-0.03,109.0
0.4909176826477051,0.55,-0.03,109.0
0.49197840690612793,0.54,-0.03,109.0
0.4938395023345947,0.54,-0.03,109.0
0.49580860137939453,0.54,-0.03,109.0
0.49694061279296875,0.43,-0.03,109.0
0.4988429546356201,0.43,-0.03,109.0
0.5068683624267578,0.0,-0.04,109.0
0.5087912082672119,0.6,-0.04,109.0
0.5099077224731445,0.6,-0.04,109.0
0.5118587017059326,0.6,-0.04,109.0
0.512897253036499,0.58,-0.05,109.0
0.5148723125457764,0.46,-0.05,109.0
0.5168001651763916,0.45,-0.05,109.0
0.51788330078125,0.42,-0.05,109.0
0.5198383331298828,0.4,-0.04,109.0
0.5217931270599365,0.4,-0.04,109.0
0.5229232311248779,0.4,-0.04,109.0
0.5248370170593262,0.51,-0.04,109.0
0.5259804725646973,0.52,-0.04,109.0
0.5278604030609131,0.52,-0.04,109.0
0.5298120975494385,0.54,-0.03,109.0
0.5309526920318604,0.52,-0.03,109.0
0.5328319072723389,0.52,-0.03,109.0
0.5348234176635742,0.52,-0.03,109.0
0.5359246730804443,0.38,-0.03,109.0
0.5378267765045166,0.37,-0.03,109.0
0.538877010345459,0.37,-0.03,109.0
0.5408530235290527,0.41,-0.02,109.0
0.5428135395050049,0.42,-0.02,109.0
0.5438995361328125,0.42,-0.02,109.0
0.5459280014038086,0.42,-0.02,109.0
0.5478911399841309,0.51,-0.02,109.0
0.5488717555999756,0.51,-0.02,109.0
0.5508265495300293,0.54,-0.01,109.0
0.5527942180633545,0.45,-0.0,109.0
0.5539200305938721,0.45,-0.0,109.0
0.5558087825775146,0.45,-0.0,109.0
0.556891918182373,0.44,0.0,109.0
0.5589733123779297,0.35,0.0,109.0
0.559903621673584,0.35,0.0,109.0
0.5618577003479004,0.35,0.0,109.0
0.5630297660827637,0.47,0.0,109.0
0.5648784637451172,0.47,0.0,109.0
0.5668036937713623,0.47,0.0,109.0
0.5738542079925537,0.0,0.02,109.0
0.5748817920684814,0.36,0.02,109.0
0.5768156051635742,0.36,0.02,109.0
0.5778887271881104,0.36,0.02,109.0
0.5798392295837402,0.35,0.03,109.0
0.5808932781219482,0.36,0.03,109.0
0.582829475402832,0.36,0.03,109.0
0.5838916301727295,0.36,0.04,109.0
0.5858519077301025,0.49,0.04,109.0
0.5869715213775635,0.49,0.04,109.0
0.5948662757873535,0.0,0.03,109.0
0.5968177318572998,0.31,0.03,109.0
0.5978872776031494,0.31,0.03,109.0
0.5998241901397705,0.31,0.03,109.0
0.600996732711792,0.3,0.03,109.0
0.6029033660888672,0.37,0.02,109.0
0.6039292812347412,0.37,0.02,109.0
0.6058394908905029,0.38,0.02,109.0
0.6077992916107178,0.5,0.02,109.0
0.6099259853363037,0.5,0.02,109.0
0.6108560562133789,0.5,0.02,109.0
0.6118960380554199,0.5,0.02,109.0
0.6138222217559814,0.44,0.01,109.0
0.6148896217346191,0.44,0.01,109.0
0.6168220043182373,0.38,0.01,109.0
0.6179776191711426,0.38,-0.01,109.0
0.6198642253875732,0.34,-0.01,109.0
0.6218206882476807,0.34,-0.01,109.0
0.6228933334350586,0.34,-0.01,109.0
0.6248724460601807,0.47,-0.02,109.0
0.6268215179443359,0.47,-0.02,109.0
0.627875804901123,0.47,-0.02,109.0
0.6298596858978271,0.47,-0.03,109.0
0.6309428215026855,0.47,-0.03,109.0
0.6329081058502197,0.46,-0.03,109.0
0.6348490715026855,0.46,-0.03,109.0
0.6358911991119385,0.37,-0.03,109.0
0.6378419399261475,0.37,-0.03,109.0
0.6398403644561768,0.34,-0.03,109.0
0.6408846378326416,0.39,-0.02,109.0
0.6428349018096924,0.39,-0.02,109.0
0.6448109149932861,0.4,-0.02,109.0
0.645920991897583,0.5,-0.02,109.0
0.6478369235992432,0.5,-0.02,109.0
0.6488926410675049,0.5,-0.02,109.0
0.6508457660675049,0.51,-0.03,109.0
0.65283203125,0.45,-0.03,109.0
0.6538934707641602,0.45,-0.03,109.0
0.65596604347229,0.44,-0.03,109.0
0.6578083038330078,0.37,-0.04,109.0
0.6589128971099854,0.36,-0.04,109.0
0.660820722579956,0.36,-0.04,109.0
0.6619048118591309,0.46,-0.04,109.0
0.6638550758361816,0.46,-0.04,109.0
0.6658413410186768,0.46,-0.04,109.0
0.6668989658355713,0.47,-0.04,109.0
0.6688675880432129,0.52,-0.04,109.0
0.6708078384399414,0.52,-0.04,109.0
0.6718788146972656,0.51,-0.03,109.0
0.6738893985748291,0.39,-0.03,109.0
0.6749117374420166,0.39,-0.03,109.0
0.676861047744751,0.39,-0.03,109.0
0.678884744644165,0.39,-0.04,109.0
0.6799123287200928,0.36,-0.04,109.0
0.6818475723266602,0.36,-0.04,109.0
0.6838216781616211,0.37,-0.04,109.0
0.6849393844604492,0.47,-0.05,109.0
0.6868374347686768,0.47,-0.05,109.0
0.688807487487793,0.47,-0.05,109.0
0.689934253692627,0.47,-0.04,109.0
0.6919634342193604,0.47,-0.04,109.0
0.6929106712341309,0.47,-0.04,109.0
0.6948401927947998,0.45,0.08,109.0
0.6968100070953369,0.33,0.08,109.0
0.6979198455810547,0.33,0.08,109.0
0.6998152732849121,0.33,0.08,109.0
0.7009186744689941,0.35,0.17,109.0
0.702843427658081,0.35,0.17,109.0
0.7039761543273926,0.35,0.17,109.0
0.7058436870574951,0.37,0.22,109.0
0.7069599628448486,0.46,0.28,109.0
0.7088325023651123,0.46,0.28,109.0
0.7099020481109619,0.46,0.28,109.0
0.7118685245513916,0.42,0.27,109.0
0.7129998207092285,0.42,0.27,109.0
0.7148780822753906,0.41,0.27,109.0
0.7168178558349609,0.39,0.27,109.0
0.7179281711578369,0.32,0.14,109.0
0.7198176383972168,0.32,0.14,109.0
0.7209582328796387,0.32,0.14,109.0
0.7231004238128662,0.38,0.02,109.0
0.72395920753479,0.38,0.02,109.0
0.7258477210998535,0.38,0.02,109.0
0.726912260055542,0.41,-0.03,109.0
0.7288529872894287,0.44,-0.14,109.0
0.7308640480041504,0.44,-0.14,109.0
0.7319331169128418,0.44,-0.14,109.0
0.7338681221008301,0.4,-0.16,109.0
0.7358253002166748,0.4,-0.16,109.0
0.7369463443756104,0.34,-0.16,109.0
0.7388556003570557,0.34,-0.13,109.0
0.7399096488952637,0.33,-0.13,109.0
0.7418677806854248,0.33,-0.13,109.0
0.7438356876373291,0.33,-0.13,109.0
0.7450556755065918,0.44,-0.07,109.0
0.746894121170044,0.44,-0.07,109.0
0.7488250732421875,0.44,-0.07,109.0
0.7498693466186523,0.44,-0.04,109.0
0.7519235610961914,0.44,-0.04,109.0
0.7529697418212891,0.44,-0.04,109.0
0.7548604011535645,0.41,-0.02,109.0
0.766016960144043,0.0,0.01,109.0
0.7678892612457275,0.44,0.01,109.0
0.7689077854156494,0.44,0.01,109.0
0.7708377838134766,0.44,0.01,109.0
0.7718870639801025,0.43,0.01,109.0
0.7739226818084717,0.43,0.01,109.0
0.7749903202056885,0.4,0.01,109.0
0.7768776416778564,0.33,-0.0,109.0
0.7788374423980713,0.33,-0.0,109.0
0.7798888683319092,0.31,-0.0,109.0
0.781836986541748,0.39,0.0,109.0
0.7829830646514893,0.39,0.0,109.0
0.784843921661377,0.39,0.0,109.0
0.7859163284301758,0.4,0.0,109.0
0.7958471775054932,0.0,0.01,109.0
0.7968857288360596,0.32,0.01,109.0
0.7988443374633789,0.32,0.01,109.0
0.7999615669250488,0.32,0.01,109.0
0.8019418716430664,0.32,0.01,109.0
0.8030152320861816,0.36,0.01,109.0
0.8048386573791504,0.36,0.01,109.0
0.8059284687042236,0.42,0.0,109.0
0.8080534934997559,0.42,0.0,109.0
0.8090879917144775,0.44,0.0,109.0
0.8108739852905273,0.44,0.0,109.0
0.8128130435943604,0.39,0.0,109.0
0.814014196395874,0.39,0.0,109.0
0.8158397674560547,0.39,0.0,109.0
0.8168778419494629,0.31,0.0,109.0
0.818859338760376,0.31,0.0,109.0
0.8199524879455566,0.31,0.0,109.0
0.8218741416931152,0.31,0.0,109.0
0.822979211807251,0.39,0.0,109.0
0.8248782157897949,0.39,0.0,109.0
0.8259809017181396,0.39,0.0,109.0
0.8278894424438477,0.44,-0.01,109.0
0.8299055099487305,0.44,-0.01,109.0
0.8309230804443359,0.44,-0.01,109.0
0.8328630924224854,0.44,-0.01,109.0
0.8348395824432373,0.35,-0.01,109.0
0.835911750793457,0.35,-0.01,109.0
0.8378479480743408,0.35,-0.01,109.0
0.8398318290710449,0.32,-0.01,109.0
0.8409838676452637,0.32,-0.01,109.0
0.8428418636322021,0.32,-0.01,109.0
0.8548440933227539,0.0,-0.0,109.0
0.855933666229248,0.34,-0.0,109.0
0.8578674793243408,0.33,-0.0,109.0
0.8598239421844482,0.33,-0.0,109.0
0.860924243927002,0.32,-0.0,109.0
0.8628537654876709,0.36,-0.01,109.0
0.8639266490936279,0.36,-0.01,109.0
0.8658788204193115,0.42,-0.01,109.0
0.8678748607635498,0.42,-0.01,109.0
0.8689415454864502,0.46,-0.01,109.0
0.8708646297454834,0.42,-0.01,109.0
0.8728282451629639,0.42,-0.01,109.0
0.8740115165710449,0.42,-0.01,109.0
0.8758587837219238,0.42,-0.01,109.0
0.8769381046295166,0.32,-0.01,109.0
0.8788907527923584,0.32,-0.01,109.0
0.8808639049530029,0.32,-0.01,109.0
0.8819146156311035,0.39,-0.01,109.0
0.8838653564453125,0.39,-0.01,109.0
0.8858177661895752,0.39,-0.01,109.0
0.8869352340698242,0.41,-0.02,109.0
0.8888587951660156,0.46,-0.02,109.0
0.8900701999664307,0.46,-0.02,109.0
0.8919405937194824,0.46,-0.02,109.0
0.8939447402954102,0.41,-0.02,109.0
0.8949267864227295,0.41,-0.02,109.0
0.8968942165374756,0.36,-0.02,109.0
0.89882493019104,0.33,-0.02,109.0
0.8999266624450684,0.33,-0.02,109.0
0.9018774032592773,0.33,-0.02,109.0
0.9038252830505371,0.33,-0.02,109.0
0.9049303531646729,0.4,-0.02,109.0
0.9068629741668701,0.4,-0.02,109.0
0.9079339504241943,0.43,-0.02,109.0
0.9098701477050781,0.41,-0.01,109.0
0.9118752479553223,0.41,-0.01,109.0
0.9129126071929932,0.41,-0.01,109.0
0.914870023727417,0.31,-0.0,109.0
0.9168169498443604,0.31,-0.0,109.0
0.9179360866546631,0.31,-0.0,109.0
0.9198641777038574,0.29,-0.0,109.0
0.920952320098877,0.32,-0.0,109.0
0.9228959083557129,0.32,-0.0,109.0
0.9248645305633545,0.32,-0.0,109.0
0.9259274005889893,0.4,-0.01,109.0
0.927894115447998,0.4,-0.01,109.0
0.9298253059387207,0.4,-0.01,109.0
0.9309618473052979,0.36,-0.0,109.0
0.9329178333282471,0.36,-0.0,109.0
0.9340364933013916,0.35,-0.0,109.0
0.9359142780303955,0.35,-0.0,109.0
0.9378280639648438,0.3,0.0,109.0
0.9389469623565674,0.3,0.0,109.0
0.9408609867095947,0.29,0.0,109.0
0.9419295787811279,0.37,0.01,109.0
0.9438495635986328,0.38,0.01,109.0
0.9450247287750244,0.38,0.01,109.0
0.946951150894165,0.38,0.02,109.0
0.9480183124542236,0.42,0.02,109.0
0.949880838394165,0.42,0.02,109.0
0.9518327713012695,0.42,0.02,109.0
0.9529023170471191,0.33,0.03,109.0
0.9548325538635254,0.33,0.03,109.0
0.9559149742126465,0.33,0.03,109.0
0.9578585624694824,0.32,0.03,109.0
0.9589591026306152,0.3,0.03,109.0
0.9608936309814453,0.3,0.03,109.0
0.9619224071502686,0.33,0.03,109.0
0.9638628959655762,0.33,0.02,109.0
0.9650218486785889,0.43,0.02,109.0
0.9668705463409424,0.43,0.02,109.0
0.9688332080841064,0.43,0.02,109.0
0.9699265956878662,0.41,0.02,109.0
0.971848726272583,0.41,0.02,109.0
0.9728870391845703,0.41,0.02,109.0
0.974860429763794,0.39,0.02,109.0
0.9759647846221924,0.28,0.02,109.0
0.9778623580932617,0.28,0.02,109.0
0.9789767265319824,0.28,0.02,109.0
0.980877161026001,0.32,0.01,109.0
0.981945276260376,0.32,0.01,109.0
0.9899287223815918,0.0,-0.01,109.0
0.9922404289245605,0.54,-0.01,109.0
0.9938313961029053,0.54,-0.01,109.0
0.9949088096618652,0.54,-0.01,109.0
0.9968433380126953,0.55,-0.01,109.0
0.9979276657104492,0.59,-0.01,109.0
0.9998788833618164,0.59,-0.01,109.0
1.0018439292907715,0.64,-0.01,109.0
1.0029418468475342,0.77,-0.01,109.0
1.013892412185669,0.0,-0.01,109.0
1.014972448348999,0.32,-0.01,109.0
1.016890287399292,0.32,-0.01,109.0
1.0189273357391357,0.32,-0.01,109.0
1.0199556350708008,0.26,-0.01,109.0
1.021869421005249,0.24,-0.01,109.0
1.0238442420959473,0.29,-0.01,109.0
1.0249955654144287,0.29,-0.01,109.0
1.0268759727478027,0.29,-0.01,109.0
1.0288288593292236,0.32,-0.01,109.0
1.0299146175384521,0.35,-0.01,109.0
1.031844139099121,0.35,-0.01,109.0
1.0330240726470947,0.35,-0.01,109.0
1.0349297523498535,0.28,-0.01,109.0
1.036851167678833,0.28,-0.01,109.0
1.037895917892456,0.28,-0.01,109.0
1.0399346351623535,0.33,-0.0,109.0
1.0418388843536377,0.34,-0.0,109.0
1.0429246425628662,0.34,-0.0,109.0
1.0449049472808838,0.34,-0.0,109.0
1.0460340976715088,0.44,-0.0,109.0
1.0479109287261963,0.44,-0.0,109.0
1.049854040145874,0.48,-0.0,109.0
1.0509462356567383,0.45,-0.01,109.0
1.052922010421753,0.45,-0.01,109.0
1.0548288822174072,0.45,-0.01,109.0
1.0560314655303955,0.38,-0.01,109.0
1.057873010635376,0.38,-0.01,109.0
1.058943748474121,0.38,-0.01,109.0
1.0608930587768555,0.38,-0.01,109.0
1.0628526210784912,0.46,-0.01,109.0
1.0640137195587158,0.46,-0.01,109.0
1.0658760070800781,0.46,-0.01,109.0
1.0678369998931885,0.52,-0.0,109.0
1.0769054889678955,0.0,0.0,109.0
1.0780081748962402,0.37,0.0,109.0
1.079862356185913,0.37,0.0,109.0
1.0810363292694092,0.37,0.0,109.0
1.0828628540039062,0.41,0.0,109.0
1.0839519500732422,0.41,0.0,109.0
1.0858688354492188,0.5,0.0,109.0
1.0870134830474854,0.5,0.0,109.0
1.0888757705688477,0.5,0.0,109.0
1.0908279418945312,0.51,0.0,109.0
1.0919294357299805,0.44,0.0,109.0
1.0938382148742676,0.44,0.0,109.0
1.0949950218200684,0.44,0.0,109.0
1.0968618392944336,0.37,-0.0,109.0
1.0989444255828857,0.37,-0.0,109.0
1.099888801574707,0.37,-0.0,109.0
1.1019015312194824,0.37,-0.0,109.0
1.103039026260376,0.48,-0.0,109.0
1.1048829555511475,0.48,-0.0,109.0
1.1068346500396729,0.48,-0.0,109.0
1.1079552173614502,0.52,-0.01,109.0
1.1098780632019043,0.52,-0.01,109.0
1.1109483242034912,0.52,-0.01,109.0
1.1129209995269775,0.43,-0.01,109.0
1.114870548248291,0.43,-0.01,109.0
1.1159203052520752,0.43,-0.01,109.0
1.1178834438323975,0.43,-0.01,109.0
1.11985445022583,0.39,-0.01,109.0
1.1209070682525635,0.39,-0.01,109.0
1.1228890419006348,0.41,-0.01,109.0
1.1239798069000244,0.51,-0.0,109.0
1.125960111618042,0.52,-0.0,109.0
1.1278650760650635,0.52,-0.0,109.0
1.1289420127868652,0.52,-0.0,109.0
1.1309294700622559,0.53,-0.0,109.0
1.132840871810913,0.53,-0.0,109.0
1.1339900493621826,0.51,-0.0,109.0
1.1358997821807861,0.41,-0.0,109.0
1.136949062347412,0.4,0.0,109.0
1.1388905048370361,0.4,0.0,109.0
1.140857219696045,0.4,0.0,109.0
1.1419105529785156,0.4,0.0,109.0
1.1438467502593994,0.45,0.0,109.0
1.1449310779571533,0.45,0.0,109.0
1.1468851566314697,0.55,0.01,109.0
1.147965431213379,0.55,0.01,109.0
1.149855613708496,0.55,0.01,109.0
1.1509981155395508,0.5,0.01,109.0
1.1528639793395996,0.5,0.01,109.0
1.1539161205291748,0.49,0.01,109.0
1.1559662818908691,0.49,0.01,109.0
1.1570706367492676,0.43,0.01,109.0
1.15891695022583,0.43,0.01,109.0
1.1608307361602783,0.42,0.01,109.0
1.1619210243225098,0.42,0.01,109.0
1.163841962814331,0.51,0.01,109.0
1.1649274826049805,0.0,0.01,109.0
1.1669974327087402,0.51,0.01,109.0
1.168015956878662,0.54,0.01,109.0
1.1698856353759766,0.55,0.01,109.0
1.1710231304168701,0.54,0.02,109.0
1.172905445098877,0.54,0.02,109.0
1.17399001121521,0.46,0.02,109.0
1.1759569644927979,0.46,0.02,109.0
1.177856683731079,0.45,0.02,109.0
1.1789350509643555,0.46,0.02,109.0
1.1808478832244873,0.46,0.02,109.0
1.1819202899932861,0.46,0.02,109.0
1.1838557720184326,0.46,0.02,109.0
1.184952974319458,0.53,0.02,109.0
1.1868605613708496,0.53,0.02,109.0
1.1879374980926514,0.56,0.02,109.0
1.1898994445800781,0.53,0.01,109.0
1.1909449100494385,0.53,0.01,109.0
1.1929070949554443,0.53,0.01,109.0
1.1948308944702148,0.52,0.01,109.0
1.1959097385406494,0.45,0.01,109.0
1.1978480815887451,0.45,0.01,109.0
1.1989970207214355,0.42,0.01,109.0
1.2008874416351318,0.48,-0.0,109.0
1.2019529342651367,0.48,-0.0,109.0
1.2039015293121338,0.49,-0.0,109.0
1.2058520317077637,0.49,-0.0,109.0
1.2070064544677734,0.55,-0.01,109.0
1.208881139755249,0.55,-0.01,109.0
1.210843563079834,0.57,-0.02,109.0
1.2119953632354736,0.5,-0.03,109.0
1.213961124420166,0.49,-0.03,109.0
1.214958667755127,0.49,-0.03,109.0
1.2168910503387451,0.49,-0.04,109.0
1.2188549041748047,0.43,-0.04,109.0
1.219947338104248,0.43,-0.04,109.0
1.2218923568725586,0.43,-0.04,109.0
1.2238564491271973,0.54,-0.04,109.0
1.22499418258667,0.54,-0.04,109.0
1.2268612384796143,0.54,-0.04,109.0
1.2279486656188965,0.58,-0.03,109.0
1.229917049407959,0.58,-0.03,109.0
1.2318766117095947,0.58,-0.03,109.0
1.2329366207122803,0.57,-0.03,109.0
1.235172986984253,0.47,-0.03,109.0
1.2370021343231201,0.47,-0.03,109.0
1.2379262447357178,0.47,-0.03,109.0
1.2398769855499268,0.46,-0.03,109.0
1.2409532070159912,0.46,-0.03,109.0
1.2428975105285645,0.46,-0.03,109.0
1.2449047565460205,0.58,-0.04,109.0
1.2460646629333496,0.58,-0.04,109.0
1.2479088306427002,0.58,-0.04,109.0
1.2498631477355957,0.58,-0.04,109.0
1.2509372234344482,0.58,-0.03,109.0
1.2528789043426514,0.58,-0.03,109.0
1.2548539638519287,0.54,-0.03,109.0
1.2560913562774658,0.45,-0.02,109.0
1.2578907012939453,0.45,-0.02,109.0
1.2589783668518066,0.45,-0.02,109.0
1.260915994644165,0.45,-0.02,109.0
1.262862205505371,0.48,-0.02,109.0
1.2640235424041748,0.48,-0.02,109.0
1.2658793926239014,0.51,-0.03,109.0
1.2678589820861816,0.56,-0.06,109.0
1.2689180374145508,0.56,-0.06,109.0
1.2709145545959473,0.56,-0.06,109.0
1.2719616889953613,0.54,-0.07,109.0
1.2739932537078857,0.54,-0.07,109.0
1.275862455368042,0.48,-0.08,109.0
1.2770190238952637,0.47,-0.06,109.0
1.2789661884307861,0.42,-0.06,109.0
1.2808544635772705,0.43,-0.06,109.0
1.2819206714630127,0.43,-0.06,109.0
1.2838611602783203,0.52,0.05,109.0
1.2850069999694824,0.53,0.05,109.0
1.2868711948394775,0.53,0.05,109.0
1.2879550457000732,0.53,0.15,109.0
1.2899487018585205,0.55,0.15,109.0
1.2909939289093018,0.55,0.15,109.0
1.292923927307129,0.53,0.2,39.0
1.2939531803131104,0.42,0.28,39.0
1.295898199081421,0.42,0.28,39.0
1.2969472408294678,0.42,0.28,39.0
1.2988927364349365,0.42,0.28,39.0
1.2999823093414307,0.4,0.28,39.0
1.3018553256988525,0.44,0.26,39.0
1.3029332160949707,0.44,0.26,39.0
1.304858922958374,0.44,0.18,39.0
1.3059272766113281,0.52,0.18,39.0
1.307861089706421,0.52,0.18,39.0
1.3089189529418945,0.54,0.13,39.0
1.3108553886413574,0.48,-0.05,39.0
1.31199312210083,0.48,-0.05,39.0
1.3138682842254639,0.48,-0.05,39.0
1.3149423599243164,0.48,-0.05,39.0
1.3168764114379883,0.42,-0.13,39.0
1.3179123401641846,0.42,-0.13,39.0
1.3199186325073242,0.4,-0.16,39.0
1.3209481239318848,0.4,-0.17,39.0
1.322948932647705,0.48,-0.17,39.0
1.331974744796753,0.0,-0.07,39.0
1.3338878154754639,0.44,-0.07,39.0
1.3350615501403809,0.44,-0.07,39.0
1.3370201587677002,0.43,-0.07,39.0
1.3380184173583984,0.4,-0.05,39.0
1.339921236038208,0.4,-0.02,39.0
1.341010332107544,0.44,-0.02,39.0
1.342942714691162,0.44,-0.02,39.0
1.3440918922424316,0.44,-0.02,39.0
1.3460092544555664,0.52,-0.0,39.0
1.3470799922943115,0.52,-0.0,39.0
1.34895920753479,0.52,-0.0,39.0
1.3500316143035889,0.52,0.01,39.0
1.3519229888916016,0.5,0.01,39.0
1.3529996871948242,0.49,0.01,39.0
1.3549702167510986,0.46,0.01,39.0
1.3560848236083984,0.46,0.02,39.0
1.3579621315002441,0.4,0.02,39.0
1.3590550422668457,0.4,0.02,39.0
1.3609404563903809,0.4,0.02,39.0
1.3619730472564697,0.48,0.02,39.0
1.363849401473999,0.48,0.02,39.0
1.3649513721466064,0.48,0.02,39.0
1.3660712242126465,0.49,0.02,39.0
1.3679227828979492,0.52,0.01,39.0
1.3699803352355957,0.53,0.01,39.0
1.3708727359771729,0.52,0.01,39.0
1.3719182014465332,0.52,0.01,39.0
1.3739113807678223,0.43,0.0,39.0
1.3750135898590088,0.43,0.0,39.0
1.3768701553344727,0.42,0.0,39.0
1.3779537677764893,0.42,-0.0,39.0
1.3799419403076172,0.41,-0.0,39.0
1.3889586925506592,0.0,-0.0,39.0
1.3908576965332031,0.5,-0.0,39.0
1.3920538425445557,0.5,-0.0,39.0
1.3938727378845215,0.5,-0.0,39.0
1.394942045211792,0.46,-0.0,39.0
1.3968753814697266,0.45,0.0,39.0
1.3979284763336182,0.4,0.0,39.0
1.399850845336914,0.4,0.0,39.0
1.4009673595428467,0.4,0.0,39.0
1.4020366668701172,0.5,0.0,39.0
1.4038934707641602,0.5,0.0,39.0
1.4049708843231201,0.5,0.0,39.0
1.4068748950958252,0.5,0.0,39.0
1.40793776512146,0.53,0.01,39.0
1.4099159240722656,0.53,0.01,39.0
1.4110150337219238,0.51,0.01,39.0
1.412883996963501,0.51,0.01,39.0
1.4140427112579346,0.42,0.0,39.0
1.4158461093902588,0.42,0.0,39.0
1.4169702529907227,0.42,0.0,39.0
1.4188616275787354,0.41,-0.0,39.0
1.4199206829071045,0.43,-0.0,39.0
1.4218955039978027,0.43,-0.0,39.0
1.4229559898376465,0.43,-0.0,39.0
1.4248809814453125,0.52,-0.0,39.0
1.4259510040283203,0.52,-0.0,39.0
1.4278764724731445,0.53,-0.0,39.0
1.4290308952331543,0.54,-0.0,39.0
1.4308853149414062,0.5,-0.0,39.0
1.431962013244629,0.5,-0.0,39.0
1.4339213371276855,0.49,-0.0,39.0
1.4358670711517334,0.43,-0.0,39.0
1.4369409084320068,0.43,-0.0,39.0
1.438868761062622,0.43,-0.0,39.0
1.4399471282958984,0.42,0.0,39.0
1.4418597221374512,0.49,0.01,39.0
1.4428956508636475,0.49,0.01,39.0
1.4439365863800049,0.49,0.01,39.0
1.4459335803985596,0.51,0.01,39.0
1.4469635486602783,0.57,0.01,39.0
1.4488778114318848,0.56,0.01,39.0
1.4499506950378418,0.56,0.01,39.0
1.4518837928771973,0.56,0.01,39.0
1.4529502391815186,0.5,0.01,39.0
1.4548776149749756,0.49,0.01,39.0
1.4559297561645508,0.46,0.01,39.0
1.4578676223754883,0.42,0.0,39.0
1.4590003490447998,0.42,0.0,39.0
1.459975004196167,0.42,0.0,39.0
1.4619007110595703,0.42,0.0,39.0
1.4630107879638672,0.48,-0.0,39.0
1.4649763107299805,0.49,-0.0,39.0
1.4730174541473389,0.0,0.01,39.0
1.4748945236206055,0.47,0.01,39.0
1.4759478569030762,0.47,0.01,39.0
1.4778811931610107,0.47,0.01,39.0
1.4789574146270752,0.46,0.01,39.0
1.4808855056762695,0.47,0.01,39.0
1.4819087982177734,0.47,0.01,39.0
1.4838552474975586,0.47,0.01,39.0
1.4851102828979492,0.49,0.01,39.0
1.4860551357269287,0.53,0.0,39.0
1.4878945350646973,0.53,0.0,39.0
1.4889674186706543,0.53,0.0,39.0
1.4909236431121826,0.53,0.0,39.0
1.492224931716919,0.5,-0.0,39.0
1.4939095973968506,0.5,-0.0,39.0
1.4949924945831299,0.45,-0.0,39.0
1.4969613552093506,0.45,-0.01,39.0
1.4988524913787842,0.4,-0.01,39.0
1.4999043941497803,0.4,-0.01,39.0
1.5018839836120605,0.4,-0.01,39.0
1.5029668807983398,0.47,-0.0,39.0
1.5048902034759521,0.47,-0.0,39.0
1.5059514045715332,0.48,-0.0,39.0
1.5079355239868164,0.49,-0.0,39.0
1.5089380741119385,0.47,0.0,39.0
1.5109155178070068,0.47,0.0,39.0
1.512017011642456,0.47,0.0,39.0
1.5138885974884033,0.41,0.0,39.0
1.5149285793304443,0.41,0.0,39.0
1.5168559551239014,0.36,0.0,39.0
1.5179636478424072,0.36,0.0,39.0
1.5189917087554932,0.37,0.01,39.0
1.5209510326385498,0.37,0.01,39.0
1.5220389366149902,0.37,0.01,39.0
1.5238959789276123,0.39,0.01,39.0
1.5251047611236572,0.48,0.01,39.0
1.5268750190734863,0.49,0.01,39.0
1.5279228687286377,0.48,0.01,39.0
1.5299031734466553,0.49,0.02,39.0
1.5309512615203857,0.46,0.02,39.0
1.53285551071167,0.46,0.02,39.0
1.5339906215667725,0.43,0.02,39.0
1.5358600616455078,0.35,0.02,39.0
1.5369696617126465,0.35,0.02,39.0
1.5379810333251953,0.35,0.02,39.0
1.539893388748169,0.35,0.02,39.0
1.5410239696502686,0.35,0.02,39.0
1.5429143905639648,0.42,0.02,39.0
1.5439879894256592,0.42,0.02,39.0
1.5459163188934326,0.42,0.02,39.0
1.5470175743103027,0.46,0.02,39.0
1.5488698482513428,0.46,0.02,39.0
1.5499370098114014,0.47,0.02,39.0
1.5518722534179688,0.47,0.02,39.0
1.552985668182373,0.38,0.02,39.0
1.5539848804473877,0.38,0.02,39.0
1.556062936782837,0.38,0.02,39.0
1.5569775104522705,0.38,0.01,39.0
1.5598797798156738,0.36,0.01,39.0
1.560084342956543,0.36,0.01,39.0
1.561882495880127,0.36,0.01,39.0
1.562958002090454,0.44,0.01,39.0
1.5648696422576904,0.45,0.01,39.0
1.5659599304199219,0.45,0.01,39.0
1.5738701820373535,0.0,0.0,39.0
1.5749280452728271,0.31,0.0,39.0
1.5759806632995605,0.31,0.0,39.0
1.5779099464416504,0.31,0.0,39.0
1.579099416732788,0.3,0.0,39.0
1.5809340476989746,0.4,-0.0,39.0
1.5819847583770752,0.4,-0.0,39.0
1.5839126110076904,0.4,-0.0,39.0
1.5858654975891113,0.63,-0.01,39.0
1.586923360824585,0.63,-0.01,39.0
1.5888721942901611,0.63,-0.01,39.0
1.5899631977081299,0.64,-0.01,39.0
1.5919194221496582,0.68,-0.01,39.0
1.5929319858551025,0.68,-0.01,39.0
1.5949406623840332,0.69,-0.01,39.0
1.5959644317626953,0.69,-0.01,39.0
1.5978946685791016,0.67,-0.01,39.0
1.6070542335510254,0.0,-0.01,39.0
1.6088650226593018,0.43,-0.01,39.0
1.6099541187286377,0.42,-0.01,39.0
1.6119012832641602,0.42,-0.01,39.0
1.613020420074463,0.35,-0.0,39.0
1.6149036884307861,0.34,-0.0,39.0
1.6159679889678955,0.21,-0.0,39.0
1.6179063320159912,0.21,-0.0,39.0
1.6189930438995361,0.21,-0.0,39.0
1.6209216117858887,0.27,-0.0,39.0
1.6219820976257324,0.27,-0.0,39.0
1.6239426136016846,0.27,-0.0,39.0
1.625863790512085,0.27,-0.01,39.0
1.6269311904907227,0.33,-0.01,39.0
1.628871202468872,0.33,-0.01,39.0
1.6299726963043213,0.35,-0.01,39.0
1.6319024562835693,0.33,-0.01,39.0
1.6330573558807373,0.33,-0.01,39.0
1.6349115371704102,0.33,-0.01,39.0
1.6359567642211914,0.32,-0.01,39.0
1.637911319732666,0.31,-0.01,39.0
1.638977289199829,0.31,-0.01,39.0
1.6409378051757812,0.32,-0.01,39.0
1.6428625583648682,0.42,-0.01,39.0
1.643989086151123,0.42,-0.01,39.0
1.6458799839019775,0.42,-0.01,39.0
1.6469573974609375,0.45,-0.01,39.0
1.6488821506500244,0.49,-0.0,39.0
1.650026559829712,0.48,-0.0,39.0
1.6518981456756592,0.48,-0.0,39.0
1.6529698371887207,0.48,-0.0,39.0
1.6549103260040283,0.42,-0.0,39.0
1.6560192108154297,0.42,-0.0,39.0
1.6639468669891357,0.0,-0.01,39.0
1.6658565998077393,0.5,-0.01,39.0
1.6671266555786133,0.51,-0.01,39.0
1.6688990592956543,0.51,-0.01,39.0
1.670076608657837,0.51,-0.01,39.0
1.671884536743164,0.48,-0.01,39.0
1.6731486320495605,0.48,-0.01,39.0
1.6749160289764404,0.48,-0.01,39.0
1.6759679317474365,0.4,-0.0,39.0
1.6779046058654785,0.4,-0.0,39.0
1.6790499687194824,0.4,-0.0,39.0
1.6809353828430176,0.4,-0.0,39.0
1.682866096496582,0.44,-0.0,39.0
1.6839404106140137,0.44,-0.0,39.0
1.6858899593353271,0.49,-0.0,39.0
1.686960220336914,0.56,-0.0,39.0
1.6888911724090576,0.56,-0.0,39.0
1.6899662017822266,0.56,-0.0,39.0
1.6919279098510742,0.56,-0.0,39.0
1.6990470886230469,0.0,-0.01,39.0
1.7009294033050537,0.48,-0.01,39.0
1.701998233795166,0.48,-0.01,39.0
1.7039122581481934,0.49,-0.01,39.0
1.7058756351470947,0.54,-0.01,39.0
1.7069447040557861,0.54,-0.01,39.0
1.7088980674743652,0.57,-0.01,39.0
1.7100245952606201,0.58,-0.01,39.0
1.7119560241699219,0.58,-0.01,39.0
1.71305251121521,0.56,-0.01,39.0
1.7149226665496826,0.55,-0.01,39.0
1.7159626483917236,0.49,-0.01,39.0
1.717951774597168,0.49,-0.01,39.0
1.7189967632293701,0.49,-0.01,39.0
1.7210850715637207,0.55,-0.01,39.0
1.7228808403015137,0.55,-0.01,39.0
1.7239694595336914,0.55,-0.01,39.0
1.7258787155151367,0.57,0.01,39.0
1.7269160747528076,0.65,0.01,39.0
1.728022813796997,0.65,0.01,39.0
1.7299208641052246,0.65,0.01,39.0
1.7408924102783203,0.0,0.02,39.0
1.7419421672821045,0.6,0.02,39.0
1.7430031299591064,0.6,0.02,39.0
1.74501633644104,0.6,0.02,39.0
1.7460644245147705,0.65,0.02,39.0
1.7479221820831299,0.65,0.01,39.0
1.7489798069000244,0.68,0.01,39.0
1.7508914470672607,0.68,0.01,39.0
1.7520344257354736,0.66,0.01,39.0
1.753899335861206,0.59,0.01,39.0
1.7549617290496826,0.59,0.01,39.0
1.7619435787200928,0.0,0.03,39.0
1.7638959884643555,0.66,0.03,39.0
1.7649455070495605,0.66,0.03,39.0
1.7669329643249512,0.66,0.03,39.0
1.767977237701416,0.68,0.04,39.0
1.769007921218872,0.68,0.04,39.0
1.7709097862243652,0.68,0.04,39.0
1.7719707489013672,0.68,0.04,39.0
1.7739017009735107,0.58,0.04,39.0
1.7760236263275146,0.58,0.04,39.0
1.77689790725708,0.58,0.04,39.0
1.7779760360717773,0.57,0.04,39.0
1.7799220085144043,0.57,0.03,39.0
1.780989170074463,0.57,0.03,39.0
1.7828779220581055,0.6,0.03,39.0
1.7839550971984863,0.6,0.02,39.0
1.7849960327148438,0.7,0.02,39.0
1.78692626953125,0.7,0.02,39.0
1.7880566120147705,0.7,0.02,39.0
1.789940595626831,0.7,0.01,39.0
1.7911295890808105,0.64,0.01,39.0
1.7929167747497559,0.64,0.01,39.0
1.7939717769622803,0.64,0.01,39.0
1.7959058284759521,0.57,-0.0,39.0
1.7969939708709717,0.57,-0.0,39.0
1.7989137172698975,0.57,-0.0,39.0
1.800063133239746,0.57,-0.01,39.0
1.8019664287567139,0.67,-0.02,39.0
1.8030860424041748,0.67,-0.02,39.0
1.8049821853637695,0.67,-0.02,39.0
1.8068759441375732,0.72,-0.03,39.0
1.8079442977905273,0.72,-0.03,39.0
1.809889554977417,0.72,-0.03,39.0
1.810950756072998,0.72,-0.03,39.0
1.8129136562347412,0.63,-0.03,39.0
1.8140525817871094,0.63,-0.03,39.0
1.8159019947052002,0.63,-0.03,39.0
1.8170664310455322,0.62,-0.03,39.0
1.8189120292663574,0.58,-0.03,39.0
1.819974422454834,0.58,-0.03,39.0
1.8219683170318604,0.59,-0.03,39.0
1.8238723278045654,0.71,-0.02,39.0
1.8249495029449463,0.71,-0.02,39.0
1.8268818855285645,0.71,-0.02,39.0
1.8279969692230225,0.71,-0.02,39.0
1.8299500942230225,0.72,-0.02,39.0
1.830995798110962,0.72,-0.02,39.0
1.832909345626831,0.7,-0.02,39.0
1.8340916633605957,0.61,-0.03,39.0
1.835937261581421,0.61,-0.03,39.0
1.8371131420135498,0.61,-0.03,39.0
1.8389229774475098,0.61,-0.04,39.0
1.8408827781677246,0.62,-0.04,39.0
1.8419828414916992,0.62,-0.04,39.0
1.8438925743103027,0.65,-0.04,39.0
1.8450002670288086,0.74,-0.03,39.0
1.8469209671020508,0.74,-0.03,39.0
1.847970962524414,0.74,-0.03,39.0
1.8499071598052979,0.74,-0.03,39.0
1.8509538173675537,0.72,-0.02,39.0
1.8529789447784424,0.72,-0.02,39.0
1.853994607925415,0.68,-0.02,39.0
1.8660902976989746,0.0,-0.08,39.0
1.8679804801940918,0.7,-0.08,39.0
1.869049072265625,0.7,-0.08,39.0
1.870931625366211,0.69,-0.08,39.0
1.872892141342163,0.67,-0.08,39.0
1.8740260601043701,0.67,-0.05,39.0
1.875894546508789,0.61,-0.05,39.0
1.8769526481628418,0.61,-0.02,39.0
1.87898850440979,0.58,-0.02,39.0
1.8799707889556885,0.58,0.03,39.0
1.881913185119629,0.58,0.03,39.0
1.882944107055664,0.64,0.18,99.0
1.8848910331726074,0.64,0.18,99.0
1.8859474658966064,0.64,0.18,99.0
1.8869826793670654,0.65,0.18,99.0
1.8889172077178955,0.65,0.27,99.0
1.890064001083374,0.65,0.27,99.0
1.8919503688812256,0.65,0.27,99.0
1.892970323562622,0.65,0.26,99.0
1.8949732780456543,0.57,0.26,99.0
1.896003007888794,0.57,0.26,99.0
1.8979036808013916,0.55,0.23,99.0
1.8989651203155518,0.59,0.06,99.0
1.9008972644805908,0.59,0.06,99.0
1.9019312858581543,0.59,0.06,99.0
1.9029865264892578,0.59,0.06,99.0
1.9049372673034668,0.65,0.0,99.0
1.905977725982666,0.65,0.0,99.0
1.9079453945159912,0.66,-0.05,99.0
1.9089925289154053,0.66,-0.05,99.0
1.910966396331787,0.6,-0.17,99.0
1.912883996963501,0.59,-0.17,99.0
1.9140992164611816,0.59,-0.17,99.0
1.9158868789672852,0.5,-0.19,99.0
1.91695237159729,0.5,-0.19,99.0
1.918919324874878,0.5,-0.19,99.0
1.9200265407562256,0.5,-0.19,99.0
1.9219107627868652,0.52,-0.16,99.0
1.923041820526123,0.53,-0.16,99.0
1.9250116348266602,0.56,-0.14,99.0
1.9259934425354004,0.56,-0.09,99.0
1.9279286861419678,0.61,-0.09,99.0
1.929884433746338,0.61,-0.09,99.0
1.9309942722320557,0.61,-0.09,99.0
1.9330286979675293,0.58,-0.07,99.0
1.933971881866455,0.57,-0.07,99.0
1.9359066486358643,0.53,-0.06,99.0
1.9369494915008545,0.53,-0.03,99.0
1.938910961151123,0.51,-0.03,99.0
1.939971685409546,0.51,-0.03,99.0
1.941946029663086,0.51,-0.03,99.0
1.9430484771728516,0.59,-0.01,99.0
1.9449527263641357,0.59,-0.01,99.0
1.946014642715454,0.59,-0.01,99.0
1.9479527473449707,0.6,-0.01,99.0
1.9498772621154785,0.6,-0.0,99.0
1.9509739875793457,0.6,-0.0,99.0
1.9528872966766357,0.57,0.0,99.0
1.9539313316345215,0.49,0.0,99.0
1.9558897018432617,0.49,0.0,99.0
1.9569954872131348,0.49,0.0,99.0
1.9580070972442627,0.49,0.0,99.0
1.9599275588989258,0.48,0.0,99.0
1.9620022773742676,0.52,-0.0,99.0
1.9629955291748047,0.53,-0.0,99.0
1.9648873805999756,0.53,-0.0,99.0
1.9659526348114014,0.57,-0.01,99.0
1.9679019451141357,0.57,-0.01,99.0
1.9690096378326416,0.58,-0.01,99.0
1.9709382057189941,0.52,-0.01,99.0
1.9720265865325928,0.52,-0.01,99.0
1.9739131927490234,0.52,-0.01,99.0
1.9750068187713623,0.52,-0.01,99.0
1.9769628047943115,0.47,-0.01,99.0
1.9780590534210205,0.47,-0.01,99.0
1.9799389839172363,0.47,-0.01,99.0
1.980985403060913,0.52,-0.0,99.0
1.9829661846160889,0.0,0.0,99.0
1.9840505123138428,0.52,0.0,99.0
1.985919713973999,0.52,0.0,99.0
1.9869585037231445,0.54,0.0,99.0
1.9889509677886963,0.54,0.0,99.0
1.990034580230713,0.54,0.0,99.0
1.991924524307251,0.54,0.0,99.0
1.9930338859558105,0.51,-0.0,99.0
1.994917392730713,0.51,-0.0,99.0
1.9960391521453857,0.51,-0.0,99.0
1.9979228973388672,0.5,-0.01,99.0
1.999054193496704,0.48,-0.01,99.0
2.0009446144104004,0.48,-0.01,99.0
2.0020923614501953,0.48,-0.01,99.0
2.0039427280426025,0.52,-0.0,99.0
2.0058889389038086,0.52,-0.0,99.0
2.0069613456726074,0.52,-0.0,99.0
2.0089025497436523,0.53,0.01,99.0
2.0099427700042725,0.51,0.01,99.0
2.010991334915161,0.51,0.01,99.0
2.0191361904144287,0.0,0.02,99.0
2.020988702774048,0.5,0.02,99.0
2.0220272541046143,0.5,0.02,99.0
2.0239553451538086,0.5,0.02,99.0
2.0249829292297363,0.51,0.02,99.0
2.026923418045044,0.52,0.02,99.0
2.027970314025879,0.52,0.02,99.0
2.029898166656494,0.52,0.02,99.0
2.030968189239502,0.52,0.02,99.0
2.0329172611236572,0.51,0.01,99.0
2.0340237617492676,0.51,0.01,99.0
2.035921573638916,0.51,0.01,99.0
2.036940097808838,0.51,0.01,99.0
2.037982940673828,0.51,0.01,99.0
2.0400006771087646,0.51,0.01,99.0
2.0409927368164062,0.52,0.01,99.0
2.042931318283081,0.56,0.02,99.0
2.0439705848693848,0.56,0.02,99.0
2.0459585189819336,0.56,0.02,99.0
2.0470478534698486,0.56,0.02,99.0
2.0488967895507812,0.56,0.02,99.0
2.0499746799468994,0.56,0.02,99.0
2.051894426345825,0.54,0.02,99.0
2.0529911518096924,0.54,0.02,99.0
2.0540289878845215,0.52,0.02,99.0
2.0560948848724365,0.52,0.02,99.0
2.057084798812866,0.52,0.02,99.0
2.0589373111724854,0.53,0.02,99.0
2.0599851608276367,0.56,0.02,99.0
2.0619077682495117,0.56,0.02,99.0
2.0630030632019043,0.56,0.02,99.0
2.064915895462036,0.56,0.02,99.0
2.0659754276275635,0.56,0.02,99.0
2.067894458770752,0.56,0.02,99.0
2.0690183639526367,0.56,0.02,99.0
2.0708980560302734,0.55,0.01,99.0
2.071960926055908,0.55,0.01,99.0
2.072995901107788,0.55,0.01,99.0
2.0749292373657227,0.55,0.01,99.0
2.076043128967285,0.54,0.01,99.0
2.0779225826263428,0.54,0.01,99.0
2.0789830684661865,0.55,0.01,99.0
2.0809218883514404,0.55,0.01,99.0
2.081949472427368,0.56,0.0,99.0
2.0839035511016846,0.56,0.0,99.0
2.084962844848633,0.57,0.0,99.0
2.0869064331054688,0.57,0.0,99.0
2.0880024433135986,0.56,0.0,99.0
2.089000701904297,0.56,0.0,99.0
2.090989351272583,0.56,0.0,99.0
2.09199595451355,0.55,0.0,99.0
2.0939176082611084,0.55,0.0,99.0
2.095045566558838,0.55,0.0,99.0
2.0969388484954834,0.55,0.01,99.0
2.0980401039123535,0.55,0.01,99.0
2.099904775619507,0.55,0.01,99.0
2.1010279655456543,0.55,0.01,99.0
2.102903366088867,0.55,0.01,99.0
2.103976011276245,0.56,0.02,99.0
2.1050000190734863,0.56,0.02,99.0
2.106959104537964,0.56,0.02,99.0
2.1079914569854736,0.56,0.01,99.0
2.109947443008423,0.53,0.01,99.0
2.1109936237335205,0.53,0.01,99.0
2.11295485496521,0.52,0.01,99.0
2.1140103340148926,0.5,0.01,99.0
2.1159117221832275,0.5,0.01,99.0
2.1170284748077393,0.5,0.01,99.0
2.118906259536743,0.5,0.01,99.0
2.119968891143799,0.51,0.01,99.0
2.121896743774414,0.51,0.01,99.0
2.123002529144287,0.52,0.01,99.0
2.123997688293457,0.52,0.01,99.0
2.1259360313415527,0.51,0.02,99.0
2.126997470855713,0.5,0.02,99.0
2.128941297531128,0.51,0.02,99.0
2.1299922466278076,0.5,0.03,99.0
2.1319150924682617,0.5,0.03,99.0
2.1329803466796875,0.5,0.03,99.0
2.141129493713379,0.0,0.03,99.0
2.142939805984497,0.51,0.03,99.0
2.1439833641052246,0.51,0.03,99.0
2.145979404449463,0.51,0.03,99.0
2.1469838619232178,0.51,0.03,99.0
2.1489064693450928,0.51,0.02,99.0
2.149967908859253,0.51,0.02,99.0
2.151007652282715,0.51,0.02,99.0
2.152966022491455,0.51,0.02,99.0
2.1540021896362305,0.51,0.01,99.0
2.1559383869171143,0.5,0.01,99.0
2.157042980194092,0.5,0.01,99.0
2.1589272022247314,0.51,0.01,99.0
2.1600024700164795,0.52,0.01,99.0
2.161931276321411,0.52,0.01,99.0
2.1629786491394043,0.53,0.01,99.0
2.1649153232574463,0.53,0.01,99.0
2.165982246398926,0.52,0.01,99.0
2.1679153442382812,0.52,0.01,99.0
2.1689741611480713,0.52,0.01,99.0
2.170053005218506,0.49,0.01,99.0
2.171926498413086,0.48,0.01,99.0
2.173039674758911,0.48,0.01,99.0
2.174961566925049,0.48,0.01,99.0
2.1759963035583496,0.46,0.01,99.0
2.1779167652130127,0.46,0.01,99.0
2.179047107696533,0.46,0.01,99.0
2.1809427738189697,0.46,0.01,99.0
2.1819815635681152,0.5,0.0,99.0
2.1838929653167725,0.5,0.0,99.0
2.1850054264068604,0.53,0.0,99.0
2.1868979930877686,0.53,0.0,99.0
2.1880011558532715,0.65,0.0,99.0
2.1890153884887695,0.65,0.0,99.0
2.1909494400024414,0.65,0.0,99.0
2.1919872760772705,0.76,0.01,99.0
2.1939427852630615,0.76,0.01,99.0
2.1949820518493652,0.76,0.01,99.0
2.1969265937805176,0.79,0.01,99.0
2.1979873180389404,0.87,0.01,99.0
2.1999223232269287,0.87,0.01,99.0
2.201019525527954,0.87,0.01,99.0
2.2028918266296387,0.87,0.01,99.0
2.203953981399536,0.85,0.01,99.0
2.205057144165039,0.73,0.0,99.0
2.2069504261016846,0.73,0.0,99.0
2.208010673522949,0.73,-0.01,99.0
2.2099456787109375,0.55,-0.01,99.0
2.211923837661743,0.54,-0.01,99.0
2.21295428276062,0.49,-0.01,99.0
2.214930295944214,0.4,-0.02,99.0
2.2159738540649414,0.4,-0.02,99.0
2.2179160118103027,0.4,-0.02,99.0
2.2190585136413574,0.4,-0.02,99.0
2.220942735671997,0.4,-0.02,99.0
2.221975564956665,0.4,-0.02,99.0
2.2239811420440674,0.41,-0.02,99.0
2.2250397205352783,0.38,-0.01,99.0
2.226938009262085,0.38,-0.01,99.0
2.228907346725464,0.38,-0.01,99.0
2.2299442291259766,0.38,-0.01,99.0
2.2379133701324463,0.0,0.0,99.0
2.2389752864837646,0.45,0.0,99.0
2.2409050464630127,0.45,0.0,99.0
2.2420036792755127,0.45,0.0,99.0
2.2439069747924805,0.47,0.0,99.0
2.2450079917907715,0.47,0.0,99.0
2.246048927307129,0.49,-0.0,99.0
2.24796724319458,0.5,-0.0,99.0
2.2499117851257324,0.5,-0.0,99.0
2.2509915828704834,0.5,-0.0,99.0
2.2529149055480957,0.5,-0.0,99.0
2.253995180130005,0.48,-0.0,99.0
2.255979299545288,0.48,-0.0,99.0
2.2570037841796875,0.48,-0.0,99.0
2.25931978225708,0.49,-0.0,99.0
2.260002613067627,0.49,-0.0,99.0
2.2619576454162598,0.49,-0.0,99.0
2.263011932373047,0.49,-0.0,99.0
2.264960289001465,0.49,-0.0,99.0
2.266087293624878,0.49,-0.01,99.0
2.2680397033691406,0.49,-0.01,99.0
2.269896984100342,0.49,-0.01,99.0
2.2709779739379883,0.47,-0.01,99.0
2.2729227542877197,0.47,-0.01,99.0
2.274068593978882,0.47,-0.01,99.0
2.2759318351745605,0.46,-0.02,99.0
2.277005672454834,0.46,-0.02,99.0
2.2790019512176514,0.46,-0.02,99.0
2.279987335205078,0.46,-0.02,99.0
2.2819838523864746,0.47,-0.02,99.0
2.2830188274383545,0.47,-0.02,99.0
2.2849409580230713,0.48,-0.02,99.0
2.296922445297241,0.0,-0.02,99.0
2.2980310916900635,0.46,-0.02,99.0
2.2999489307403564,0.46,-0.02,99.0
2.300999164581299,0.46,-0.02,99.0
2.302952289581299,0.47,-0.02,99.0
2.312143087387085,0.0,-0.03,99.0
2.3140082359313965,0.46,-0.03,99.0
2.315023183822632,0.46,-0.03,99.0
2.3169708251953125,0.46,-0.03,99.0
2.31890869140625,0.46,-0.03,99.0
2.319990396499634,0.46,-0.03,99.0
2.321918487548828,0.49,-0.02,99.0
2.322988271713257,0.49,-0.02,99.0
2.324950933456421,0.49,-0.02,99.0
2.3260114192962646,0.49,-0.01,99.0
2.327930450439453,0.49,-0.01,99.0
2.329005241394043,0.49,-0.01,99.0
2.330948829650879,0.49,-0.01,99.0
2.3320305347442627,0.49,0.0,99.0
2.3339548110961914,0.5,0.0,99.0
2.3349952697753906,0.49,0.0,99.0
2.336947202682495,0.49,0.01,99.0
2.3379671573638916,0.47,0.01,99.0
2.3399336338043213,0.47,0.01,99.0
2.34104323387146,0.47,0.01,99.0
2.3429107666015625,0.48,0.01,99.0
2.343994617462158,0.48,0.01,99.0
2.3450989723205566,0.48,0.01,99.0
2.3469650745391846,0.48,0.01,99.0
2.348163366317749,0.47,0.01,99.0
2.349961996078491,0.47,0.01,99.0
2.35107421875,0.47,0.01,99.0
2.352954626083374,0.47,0.01,99.0
2.3540053367614746,0.47,0.02,99.0
2.3559751510620117,0.47,0.02,99.0
2.357039451599121,0.47,0.02,99.0
2.3589351177215576,0.47,0.02,99.0
2.3599822521209717,0.5,0.02,99.0
2.36191463470459,0.5,0.02,99.0
2.3629491329193115,0.5,0.02,99.0
2.3640706539154053,0.5,0.02,99.0
2.366013288497925,0.5,0.02,99.0
2.3670918941497803,0.5,0.02,99.0
2.368950843811035,0.49,0.02,99.0
2.3700015544891357,0.49,0.02,99.0
2.371929168701172,0.49,0.02,99.0
2.373046636581421,0.49,0.02,99.0
2.374948263168335,0.49,0.02,99.0
2.3759591579437256,0.48,0.02,99.0
2.3779146671295166,0.48,0.02,99.0
2.3789868354797363,0.48,0.02,99.0
2.3800342082977295,0.48,0.02,99.0
2.3819539546966553,0.49,0.02,99.0
2.383007049560547,0.49,0.02,99.0
2.38495135307312,0.49,0.02,99.0
2.386091947555542,0.49,0.03,99.0
2.3879404067993164,0.47,0.03,99.0
2.389066457748413,0.47,0.03,99.0
2.3909566402435303,0.47,0.03,99.0
2.3920581340789795,0.48,0.02,99.0
2.39391827583313,0.48,0.02,99.0
2.394991874694824,0.48,0.02,99.0
2.396918535232544,0.48,0.02,99.0
2.398016929626465,0.5,0.01,99.0
2.3990159034729004,0.5,0.01,99.0
2.4010121822357178,0.5,0.01,99.0
2.401989459991455,0.5,0.01,99.0
2.4039573669433594,0.5,0.0,99.0
2.4050018787384033,0.5,0.0,99.0
2.4069461822509766,0.5,-0.0,99.0
2.408069133758545,0.5,-0.02,99.0
2.409949779510498,0.49,-0.02,99.0
2.411050319671631,0.49,-0.02,99.0
2.4130518436431885,0.49,-0.02,99.0
2.4149222373962402,0.48,-0.03,99.0
2.4159584045410156,0.48,-0.03,99.0
2.4179248809814453,0.48,-0.03,99.0
2.41898250579834,0.48,-0.03,99.0
2.4209487438201904,0.5,-0.03,99.0
2.422056198120117,0.5,-0.03,99.0
2.4239556789398193,0.5,-0.03,99.0
2.4250640869140625,0.51,-0.03,99.0
2.4269492626190186,0.51,-0.03,99.0
2.4279887676239014,0.51,-0.03,99.0
2.430020332336426,0.51,-0.03,99.0
2.431920051574707,0.51,-0.03,99.0
2.4329721927642822,0.51,-0.03,99.0
2.434960126876831,0.51,-0.03,99.0
2.4359915256500244,0.52,-0.03,99.0
2.437995433807373,0.52,-0.03,99.0
2.439000129699707,0.52,-0.03,99.0
2.440939426422119,0.52,-0.03,99.0
2.4420769214630127,0.53,-0.03,99.0
2.4439666271209717,0.53,-0.03,99.0
2.4450247287750244,0.53,-0.03,99.0
2.44697904586792,0.52,-0.03,99.0
2.448918581008911,0.52,-0.03,99.0
2.4499869346618652,0.51,-0.02,99.0
2.451930284500122,0.51,-0.02,99.0
2.452995777130127,0.5,-0.01,99.0
2.4549360275268555,0.5,-0.01,99.0
2.4560675621032715,0.5,-0.01,99.0
2.4579708576202393,0.5,-0.02,99.0
2.4590158462524414,0.5,-0.02,99.0
2.4609766006469727,0.5,-0.02,99.0
2.4620120525360107,0.5,-0.02,99.0
2.4639945030212402,0.5,-0.04,99.0
2.4659783840179443,0.51,-0.04,99.0
2.4671409130096436,0.5,-0.04,99.0
2.468989610671997,0.5,-0.08,99.0
2.479151487350464,0.0,0.06,99.0
2.480984926223755,0.48,0.06,99.0
2.4820337295532227,0.48,0.06,99.0
2.483980894088745,0.48,0.06,99.0
2.4850287437438965,0.49,0.11,99.0
2.486943006515503,0.49,0.11,99.0
2.488053560256958,0.49,0.17,99.0
2.489980459213257,0.48,0.26,97.0
2.4910783767700195,0.48,0.26,97.0
2.492166757583618,0.48,0.29,97.0
2.4940547943115234,0.47,0.29,97.0
2.495046377182007,0.45,0.27,97.0
2.496953248977661,0.46,0.27,97.0
2.498079538345337,0.45,0.27,97.0
2.4999420642852783,0.46,0.18,97.0
2.5010874271392822,0.47,0.18,97.0
2.502964973449707,0.47,0.18,97.0
2.5039913654327393,0.48,0.18,97.0
2.5059409141540527,0.48,0.0,97.0
2.50704026222229,0.47,0.0,97.0
2.508918046951294,0.47,0.0,97.0
2.5099852085113525,0.47,0.0,97.0
2.511944532394409,0.46,-0.09,97.0
2.5130739212036133,0.46,-0.09,97.0
2.514930486679077,0.44,-0.12,97.0
2.5160129070281982,0.44,-0.12,97.0
2.5179378986358643,0.44,-0.16,97.0
2.5190062522888184,0.44,-0.16,97.0
2.5209479331970215,0.45,-0.16,97.0
2.5220699310302734,0.47,-0.12,97.0
2.5240285396575928,0.47,-0.12,97.0
2.525029420852661,0.47,-0.12,97.0
2.526961088180542,0.47,-0.12,97.0
2.528923273086548,0.47,-0.11,97.0
2.5300345420837402,0.47,-0.11,97.0
2.531935453414917,0.47,-0.09,97.0
2.5330047607421875,0.46,-0.05,97.0
2.5349884033203125,0.46,-0.05,97.0
2.5360846519470215,0.46,-0.05,97.0
2.5379433631896973,0.46,-0.05,97.0
2.5390100479125977,0.46,-0.03,97.0
2.5409951210021973,0.47,-0.03,97.0
2.5420665740966797,0.48,-0.02,97.0
2.543985366821289,0.48,-0.0,97.0
2.545036792755127,0.48,-0.0,97.0
2.547043800354004,0.48,-0.0,97.0
2.5489604473114014,0.48,-0.0,97.0
2.549966335296631,0.47,0.01,97.0
2.5510284900665283,0.47,0.01,97.0
2.5529751777648926,0.47,0.01,97.0
2.55405855178833,0.46,0.01,97.0
2.5560004711151123,0.45,0.01,97.0
2.557080030441284,0.45,0.01,97.0
2.5589685440063477,0.45,0.01,97.0
2.56000018119812,0.45,0.0,97.0
2.561960220336914,0.48,0.0,97.0
2.563006639480591,0.49,0.0,97.0
2.564971685409546,0.5,-0.0,97.0
2.5659940242767334,0.51,-0.01,97.0
2.568009376525879,0.51,-0.01,97.0
2.569021701812744,0.52,-0.01,97.0
2.570985794067383,0.51,-0.01,97.0
2.5720772743225098,0.49,-0.01,97.0
2.5739681720733643,0.49,-0.01,97.0
2.5759191513061523,0.47,-0.01,97.0
2.5880138874053955,0.0,-0.01,97.0
2.5890378952026367,0.5,-0.01,97.0
2.5909464359283447,0.5,-0.01,97.0
2.592069625854492,0.5,-0.01,97.0
2.5939435958862305,0.49,-0.01,97.0
2.5950028896331787,0.49,-0.01,97.0
2.596992015838623,0.47,-0.01,97.0
2.5980279445648193,0.47,-0.01,97.0
2.599959373474121,0.47,-0.01,97.0
2.601029396057129,0.49,-0.01,97.0
2.6090259552001953,0.0,-0.0,97.0
2.6109492778778076,0.51,-0.0,97.0
2.6120264530181885,0.51,-0.0,97.0
2.614013910293579,0.51,-0.0,97.0
2.615020990371704,0.5,0.0,97.0
2.616943359375,0.48,0.0,97.0
2.617997646331787,0.48,0.0,97.0
2.619948625564575,0.48,0.0,97.0
2.620990753173828,0.52,0.01,97.0
2.622941255569458,0.52,0.01,97.0
2.623995780944824,0.52,0.01,97.0
2.6250176429748535,0.52,0.01,97.0
2.626957654953003,0.53,0.01,97.0
2.6280887126922607,0.53,0.01,97.0
2.629953384399414,0.53,0.01,97.0
2.6310181617736816,0.53,0.01,97.0
2.6329476833343506,0.51,0.0,97.0
2.634070634841919,0.51,0.0,97.0
2.6359517574310303,0.5,0.0,97.0
2.6371493339538574,0.5,-0.01,97.0
2.638930559158325,0.52,-0.01,97.0
2.6401917934417725,0.52,-0.01,97.0
2.641993761062622,0.52,-0.01,97.0
2.643026828765869,0.54,-0.01,97.0
2.645031690597534,0.54,-0.01,97.0
2.6461358070373535,0.54,-0.01,97.0
2.6480000019073486,0.54,-0.01,97.0
2.6499264240264893,0.53,-0.0,97.0
2.650991439819336,0.53,-0.0,97.0
2.652966022491455,0.53,-0.0,97.0
2.6540017127990723,0.52,0.0,97.0
2.6559174060821533,0.52,0.0,97.0
2.65704607963562,0.52,0.0,97.0
2.658027172088623,0.51,0.01,97.0
2.6700990200042725,0.0,-0.0,97.0
2.6719484329223633,0.53,-0.0,97.0
2.6730284690856934,0.53,-0.0,97.0
2.674962043762207,0.53,-0.0,97.0
2.676011323928833,0.52,-0.0,97.0
2.68601393699646,0.0,-0.01,97.0
2.6870248317718506,0.57,-0.01,97.0
2.6889710426330566,0.57,-0.01,97.0
2.6900341510772705,0.57,-0.01,97.0
2.6920464038848877,0.56,-0.0,97.0
2.693934679031372,0.56,-0.0,97.0
2.6949715614318848,0.52,0.0,97.0
2.6960489749908447,0.52,0.0,97.0
2.6979825496673584,0.52,0.0,97.0
2.699146270751953,0.52,-0.0,97.0
2.7010207176208496,0.54,-0.0,97.0
2.7029545307159424,0.54,-0.0,97.0
2.70400333404541,0.54,-0.0,97.0
2.70596981048584,0.54,-0.0,97.0
2.7070987224578857,0.54,-0.0,97.0
2.7089574337005615,0.54,-0.0,97.0
2.709994077682495,0.54,-0.01,97.0
2.7120041847229004,0.5,-0.01,97.0
2.7210397720336914,0.0,0.01,97.0
2.722966194152832,0.53,0.01,97.0
2.724061965942383,0.53,0.01,97.0
2.725057363510132,0.53,0.01,97.0
2.7269673347473145,0.54,0.02,97.0
2.7280385494232178,0.54,0.02,97.0
2.729966163635254,0.51,0.03,97.0
2.731023073196411,0.51,0.03,97.0
2.732950448989868,0.51,0.03,97.0
2.7340900897979736,0.51,0.03,97.0
2.735964059829712,0.47,0.03,97.0
2.737204074859619,0.47,0.03,97.0
2.7389535903930664,0.47,0.03,97.0
2.7400124073028564,0.47,0.03,97.0
2.741934061050415,0.49,0.03,97.0
2.742978811264038,0.49,0.03,97.0
2.744112968444824,0.5,0.03,97.0
2.7460389137268066,0.51,0.02,97.0
2.747023582458496,0.51,0.02,97.0
2.748960018157959,0.51,0.02,97.0
2.7500202655792236,0.51,0.02,97.0
2.7519729137420654,0.49,0.02,97.0
2.753013849258423,0.5,0.02,97.0
2.7549679279327393,0.48,0.01,97.0
2.756070137023926,0.48,0.01,97.0
2.7579398155212402,0.47,0.01,97.0
2.7590019702911377,0.47,0.01,97.0
2.7600369453430176,0.47,0.01,97.0
2.7619786262512207,0.47,0.0,97.0
2.763042449951172,0.5,0.0,97.0
2.764981746673584,0.5,0.0,97.0
2.7661004066467285,0.5,0.0,97.0
2.7680306434631348,0.48,-0.0,97.0
2.7690846920013428,0.48,-0.0,97.0
2.7710041999816895,0.48,-0.0,97.0
2.772041082382202,0.47,-0.0,97.0
2.773986339569092,0.44,-0.01,97.0
2.7759430408477783,0.44,-0.01,97.0
2.777031660079956,0.44,-0.01,97.0
2.7840371131896973,0.0,-0.01,97.0
2.7859742641448975,0.7,-0.01,97.0
2.7869980335235596,0.71,-0.01,97.0
2.7889745235443115,0.71,-0.01,97.0
2.7900869846343994,0.8,-0.01,97.0
2.79198956489563,0.8,-0.01,97.0
2.7930335998535156,0.81,-0.01,97.0
2.7949984073638916,0.82,-0.01,97.0
2.796109676361084,0.81,-0.01,97.0
2.7979822158813477,0.81,-0.01,97.0
2.7999448776245117,0.81,-0.01,97.0
2.8010523319244385,0.74,-0.01,97.0
2.802982807159424,0.74,-0.01,97.0
2.8040285110473633,0.64,-0.01,97.0
2.8059520721435547,0.64,-0.01,97.0
2.807076930999756,0.46,-0.02,97.0
2.808969497680664,0.45,-0.02,97.0
2.810013771057129,0.45,-0.02,97.0
2.8120293617248535,0.32,-0.02,97.0
2.8130364418029785,0.32,-0.02,97.0
2.8149893283843994,0.32,-0.02,97.0
2.8169338703155518,0.32,-0.02,97.0
2.818063974380493,0.3,-0.02,97.0
2.8199431896209717,0.3,-0.02,97.0
2.8209941387176514,0.32,-0.02,97.0
2.8230040073394775,0.37,-0.01,97.0
2.8241093158721924,0.37,-0.01,97.0
2.825967788696289,0.37,-0.01,97.0
2.82702898979187,0.37,-0.01,97.0
2.8289735317230225,0.38,-0.01,97.0
2.8300719261169434,0.39,-0.0,97.0
2.8319852352142334,0.39,-0.0,97.0
2.833055019378662,0.39,-0.0,97.0
2.835059881210327,0.4,-0.0,97.0
2.83695125579834,0.4,-0.0,97.0
2.8379931449890137,0.41,-0.0,97.0
2.839961051940918,0.47,-0.01,97.0
2.841038465499878,0.47,-0.01,97.0
2.8429760932922363,0.48,-0.01,97.0
2.844064474105835,0.48,-0.01,97.0
2.8469645977020264,0.51,-0.01,97.0
2.847219705581665,0.51,-0.01,97.0
2.8490140438079834,0.51,-0.01,97.0
2.850024700164795,0.49,-0.01,97.0
2.8609604835510254,0.0,0.01,97.0
2.862056016921997,0.52,0.01,97.0
2.863943576812744,0.52,0.01,97.0
2.86500883102417,0.52,0.01,97.0
2.8661692142486572,0.54,0.01,97.0
2.8680331707000732,0.54,0.01,97.0
2.8690197467803955,0.54,0.0,97.0
2.87096905708313,0.51,0.0,97.0
2.8720366954803467,0.51,0.0,97.0
2.8739864826202393,0.51,0.0,97.0
2.875048875808716,0.48,-0.0,97.0
2.8769679069519043,0.48,-0.0,97.0
2.878113269805908,0.48,-0.0,97.0
2.880026340484619,0.48,-0.0,97.0
2.881138801574707,0.54,-0.01,97.0
2.8829801082611084,0.54,-0.01,97.0
2.8849408626556396,0.54,-0.01,97.0
2.8860833644866943,0.54,-0.01,97.0
2.8879549503326416,0.55,-0.01,97.0
2.8890316486358643,0.55,-0.01,97.0
2.891016721725464,0.55,-0.0,97.0
2.8920304775238037,0.5,-0.0,97.0
2.8939709663391113,0.5,-0.0,97.0
2.8950867652893066,0.5,-0.0,97.0
2.896986722946167,0.5,0.0,97.0
2.8980367183685303,0.49,0.0,97.0
2.899965763092041,0.49,0.0,97.0
2.9011003971099854,0.5,0.0,97.0
2.902982711791992,0.55,0.0,97.0
2.904025077819824,0.55,0.0,97.0
2.905944585800171,0.55,0.0,97.0
2.9070000648498535,0.55,0.0,97.0
2.9089584350585938,0.54,-0.0,97.0
2.910025119781494,0.54,-0.0,97.0
2.9120118618011475,0.54,-0.0,97.0
2.9130682945251465,0.54,-0.0,97.0
2.9149627685546875,0.52,-0.0,97.0
2.91603946685791,0.52,-0.0,97.0
2.917970657348633,0.52,-0.0,97.0
2.9190595149993896,0.54,-0.0,97.0
2.920997381210327,0.55,-0.0,97.0
2.9220592975616455,0.55,-0.0,97.0
2.923994302749634,0.55,-0.0,97.0
2.925955057144165,0.56,-0.0,97.0
2.9269895553588867,0.56,-0.0,97.0
2.928943395614624,0.57,0.0,97.0
2.9351229667663574,0.0,0.01,97.0
2.937023401260376,0.52,0.01,97.0
2.9380300045013428,0.52,0.01,97.0
2.939964771270752,0.52,0.01,97.0
2.9410171508789062,0.54,0.01,97.0
2.942960262298584,0.54,0.01,97.0
2.9439961910247803,0.57,0.01,97.0
2.9451310634613037,0.57,0.01,97.0
2.9470579624176025,0.58,0.01,97.0
2.949050188064575,0.58,0.01,97.0
2.950059175491333,0.58,0.01,97.0
2.951061725616455,0.57,0.01,97.0
2.9529762268066406,0.53,0.01,97.0
2.9540317058563232,0.53,0.01,97.0
2.9560000896453857,0.53,0.01,97.0
2.957089424133301,0.53,0.01,97.0
2.9589898586273193,0.54,0.01,97.0
2.959998607635498,0.54,0.01,97.0
2.9619529247283936,0.54,0.01,97.0
2.9630091190338135,0.57,0.01,97.0
2.9641213417053223,0.57,0.01,97.0
2.9659841060638428,0.57,0.01,97.0
2.9671378135681152,0.57,0.01,97.0
2.96903920173645,0.57,0.02,97.0
2.970029592514038,0.57,0.02,97.0
2.9720089435577393,0.56,0.02,97.0
2.973034620285034,0.56,0.02,97.0
2.9749717712402344,0.54,0.02,97.0
2.9760172367095947,0.54,0.02,97.0
2.9779508113861084,0.53,0.02,97.0
2.9790217876434326,0.53,0.02,97.0
2.9800760746002197,0.56,0.02,97.0
2.9820034503936768,0.56,0.02,97.0
2.983046531677246,0.56,0.02,97.0
2.984983444213867,0.59,0.03,97.0
2.986067533493042,0.59,0.03,97.0
2.9879958629608154,0.59,0.03,97.0
2.9890356063842773,0.59,0.03,97.0
2.991013526916504,0.57,0.02,97.0
2.99208402633667,0.57,0.02,97.0
2.9939486980438232,0.55,0.02,97.0
2.9950215816497803,0.55,0.02,97.0
2.996945858001709,0.53,0.01,97.0
2.998015880584717,0.54,0.01,97.0
2.9991044998168945,0.54,0.01,97.0
3.001082420349121,0.54,-0.01,97.0
3.0029616355895996,0.59,-0.01,97.0
3.0040197372436523,0.59,-0.01,97.0
3.0059759616851807,0.59,-0.01,97.0
3.0070197582244873,0.6,-0.02,97.0
3.008981466293335,0.6,-0.02,97.0
3.010035991668701,0.6,-0.02,97.0
3.0120410919189453,0.59,-0.02,97.0
3.0130393505096436,0.54,-0.02,97.0
3.015021324157715,0.54,-0.02,97.0
3.016123056411743,0.54,-0.02,97.0
3.0180306434631348,0.55,-0.01,97.0
3.019044876098633,0.55,-0.01,97.0
3.021071434020996,0.55,-0.01,97.0
3.0229527950286865,0.56,-0.01,97.0
3.024090051651001,0.61,-0.01,97.0
3.0259976387023926,0.61,-0.01,97.0
3.0270516872406006,0.61,-0.01,97.0
3.0289690494537354,0.6,-0.02,97.0
3.0300776958465576,0.6,-0.02,97.0
3.03200101852417,0.6,-0.02,97.0
3.0331223011016846,0.59,-0.02,97.0
3.035068988800049,0.56,-0.03,97.0
3.036111831665039,0.56,-0.03,97.0
3.038024663925171,0.56,-0.03,97.0
3.039961814880371,0.56,-0.04,97.0
3.04103422164917,0.58,-0.04,97.0
3.0430047512054443,0.58,-0.04,97.0
3.044135093688965,0.6,-0.04,97.0
3.0459983348846436,0.6,-0.03,97.0
3.047168493270874,0.6,-0.03,97.0
3.048999309539795,0.6,-0.03,97.0
3.050034761428833,0.6,-0.02,97.0
3.0520169734954834,0.56,-0.02,97.0
3.0531725883483887,0.56,-0.02,97.0
3.0550003051757812,0.54,-0.02,97.0
3.0569522380828857,0.51,-0.03,97.0
3.058030366897583,0.51,-0.03,97.0
3.059966802597046,0.51,-0.03,97.0
3.061004638671875,0.51,-0.03,97.0
3.062990188598633,0.54,-0.06,97.0
3.0640437602996826,0.54,-0.06,97.0
3.065983533859253,0.55,-0.07,97.0
3.067270278930664,0.53,-0.07,97.0
3.069042921066284,0.53,-0.07,97.0
3.0700936317443848,0.53,-0.07,97.0
3.071993589401245,0.53,-0.07,97.0
3.073962926864624,0.49,-0.03,97.0
3.075089693069458,0.49,-0.03,97.0
3.076960563659668,0.48,0.01,97.0
3.078033924102783,0.48,0.11,97.0
3.0791478157043457,0.5,0.16,97.0
3.0812299251556396,0.5,0.16,97.0
3.0820393562316895,0.5,0.16,97.0
3.0839836597442627,0.51,0.22,99.0
3.0850167274475098,0.51,0.22,99.0
3.0869901180267334,0.51,0.26,99.0
3.088052272796631,0.51,0.26,99.0
3.089989423751831,0.49,0.3,99.0
3.0910258293151855,0.49,0.3,99.0
3.092970609664917,0.49,0.3,99.0
3.0940630435943604,0.49,0.3,99.0
3.0950615406036377,0.47,0.19,99.0
3.0969903469085693,0.47,0.19,99.0
3.0981335639953613,0.47,0.19,99.0
3.0999832153320312,0.47,0.06,99.0
3.101132392883301,0.49,0.06,99.0
3.1030914783477783,0.49,0.06,99.0
3.1040565967559814,0.5,-0.01,99.0
3.1059823036193848,0.5,-0.12,99.0
3.1070876121520996,0.5,-0.16,99.0
3.108994960784912,0.5,-0.16,99.0
3.1100730895996094,0.5,-0.16,99.0
3.1180832386016846,0.0,-0.16,99.0
3.1199755668640137,0.47,-0.16,99.0
3.1210358142852783,0.48,-0.16,99.0
3.1229963302612305,0.48,-0.16,99.0
3.1241097450256348,0.49,-0.14,99.0
3.1260080337524414,0.49,-0.11,99.0
3.1271722316741943,0.5,-0.11,99.0
3.1289942264556885,0.49,-0.08,99.0
3.130086660385132,0.49,-0.08,99.0
3.132004499435425,0.47,-0.06,99.0
3.1339683532714844,0.47,-0.04,99.0
3.1351099014282227,0.45,-0.04,99.0
3.136991024017334,0.45,-0.04,99.0
3.1380326747894287,0.45,-0.04,99.0
3.13999605178833,0.47,-0.02,99.0
3.1410443782806396,0.47,-0.02,99.0
3.142987012863159,0.47,-0.02,99.0
3.144111394882202,0.48,-0.01,99.0
3.146056890487671,0.5,-0.01,99.0
3.1471896171569824,0.5,-0.01,99.0
3.1490304470062256,0.5,-0.01,99.0
3.150052070617676,0.46,0.0,99.0
3.152012348175049,0.46,0.0,99.0
3.1530544757843018,0.46,0.0,99.0
3.1549882888793945,0.45,0.0,99.0
3.156146764755249,0.44,0.01,99.0
3.1580328941345215,0.44,0.01,99.0
3.1592400074005127,0.44,0.01,99.0
3.1609668731689453,0.44,0.01,99.0
3.1620476245880127,0.48,0.01,99.0
3.1639676094055176,0.48,0.01,99.0
3.1650211811065674,0.49,0.01,99.0
3.177147626876831,0.0,0.01,99.0
3.178163766860962,0.46,0.01,99.0
3.180039167404175,0.46,0.01,99.0
3.181145429611206,0.46,0.01,99.0
3.1829888820648193,0.48,0.01,99.0
3.184119701385498,0.48,0.01,99.0
3.185983657836914,0.49,0.01,99.0
3.187023162841797,0.49,0.01,99.0
3.1889750957489014,0.49,0.01,99.0
3.190087080001831,0.47,0.01,99.0
3.1989731788635254,0.0,0.0,99.0
3.2000839710235596,0.46,0.0,99.0
3.2013468742370605,0.46,0.0,99.0
3.203032970428467,0.46,0.0,99.0
3.204063653945923,0.47,0.0,99.0
3.2060158252716064,0.47,0.01,99.0
3.207059860229492,0.48,0.01,99.0
3.2089850902557373,0.48,0.01,99.0
3.2101047039031982,0.48,0.01,99.0
3.212002754211426,0.44,0.01,99.0
3.2130463123321533,0.44,0.01,99.0
3.2149641513824463,0.44,0.01,99.0
3.2220921516418457,0.0,0.0,99.0
3.2240006923675537,0.48,0.0,99.0
3.2251076698303223,0.48,0.0,99.0
3.2269673347473145,0.48,0.0,99.0
3.228031635284424,0.48,0.0,99.0
3.2290682792663574,0.46,0.0,99.0
3.231003522872925,0.46,0.0,99.0
3.2320375442504883,0.46,0.0,99.0
3.2340645790100098,0.46,0.0,99.0
3.2351157665252686,0.45,0.0,99.0
3.2370376586914062,0.45,0.0,99.0
3.2380447387695312,0.45,0.0,99.0
3.239978075027466,0.48,0.0,99.0
3.2420365810394287,0.48,0.0,99.0
3.242976665496826,0.48,0.0,99.0
3.2440288066864014,0.49,0.0,99.0
3.2450735569000244,0.51,0.0,99.0
3.2470226287841797,0.51,0.0,99.0
3.248065948486328,0.51,0.0,99.0
3.250030040740967,0.51,0.0,99.0
3.251072406768799,0.5,-0.0,99.0
3.2530031204223633,0.47,-0.0,99.0
3.2541773319244385,0.47,-0.0,99.0
3.2560462951660156,0.46,-0.0,99.0
3.2579846382141113,0.46,-0.0,99.0
3.2590436935424805,0.46,-0.0,99.0
3.2609734535217285,0.47,-0.0,99.0
3.262077569961548,0.52,-0.0,99.0
3.263989210128784,0.52,-0.0,99.0
3.265035390853882,0.52,-0.0,99.0
3.267085313796997,0.52,0.0,99.0
3.2681198120117188,0.52,0.0,99.0
3.2700178623199463,0.52,0.0,99.0
3.2710318565368652,0.52,0.0,99.0
3.272963762283325,0.47,0.0,99.0
3.274073600769043,0.47,0.0,99.0
3.2832415103912354,0.0,0.0,99.0
3.284973621368408,0.52,0.0,99.0
3.2860350608825684,0.52,0.0,99.0
3.2871179580688477,0.52,0.0,99.0
3.2890207767486572,0.51,0.0,99.0
3.290071725845337,0.51,0.0,99.0
3.292032241821289,0.46,0.01,99.0
3.2930519580841064,0.46,0.01,99.0
3.294990301132202,0.46,0.01,99.0
3.2960946559906006,0.46,0.01,99.0
3.2979822158813477,0.45,0.01,99.0
3.299041509628296,0.45,0.01,99.0
3.300981044769287,0.45,0.01,99.0
3.302027940750122,0.49,0.01,99.0
3.303107500076294,0.49,0.01,99.0
3.3050248622894287,0.49,0.01,99.0
3.3060719966888428,0.49,0.01,99.0
3.3080077171325684,0.48,0.01,99.0
3.3090734481811523,0.48,0.01,99.0
3.311008930206299,0.46,0.01,99.0
3.312208652496338,0.46,0.01,99.0
3.314011812210083,0.41,0.01,99.0
3.3150453567504883,0.41,0.01,99.0
3.3170089721679688,0.41,0.01,99.0
3.3180441856384277,0.41,0.02,99.0
3.319082260131836,0.45,0.02,99.0
3.3210315704345703,0.45,0.02,99.0
3.322110652923584,0.45,0.02,99.0
3.3240723609924316,0.48,0.03,99.0
3.3251383304595947,0.49,0.03,99.0
3.3269989490509033,0.49,0.03,99.0
3.3280527591705322,0.48,0.03,99.0
3.330014228820801,0.44,0.04,99.0
3.331045389175415,0.44,0.04,99.0
3.340073585510254,0.0,0.03,99.0
3.3411507606506348,0.46,0.03,99.0
3.3430306911468506,0.46,0.03,99.0
3.34407377243042,0.46,0.03,99.0
3.346097946166992,0.47,0.03,99.0
3.3474411964416504,0.47,0.01,99.0
3.3489973545074463,0.46,0.01,99.0
3.3501076698303223,0.46,0.01,99.0
3.3520243167877197,0.46,0.01,99.0
3.3530519008636475,0.46,0.0,99.0
3.3549864292144775,0.41,0.0,99.0
3.356088638305664,0.41,0.0,99.0
3.357976198196411,0.41,0.0,99.0
3.3590948581695557,0.43,-0.0,99.0
3.36098313331604,0.43,-0.0,99.0
3.3620941638946533,0.43,-0.0,99.0
3.3640358448028564,0.44,-0.0,99.0
3.365058422088623,0.46,-0.01,99.0
3.367288589477539,0.46,-0.01,99.0
3.368075132369995,0.46,-0.01,99.0
3.3701236248016357,0.42,-0.01,99.0
3.371079444885254,0.42,-0.01,99.0
3.373030185699463,0.42,-0.01,99.0
3.37497615814209,0.42,-0.02,99.0
3.3760900497436523,0.45,-0.02,99.0
3.3779778480529785,0.46,-0.02,99.0
3.3790600299835205,0.46,-0.02,99.0
3.3810012340545654,0.46,-0.02,99.0
3.382065773010254,0.58,-0.02,99.0
3.3840134143829346,0.58,-0.02,99.0
3.385066032409668,0.63,-0.02,99.0
3.3870275020599365,0.77,-0.01,99.0
3.3880622386932373,0.78,-0.01,99.0
3.3900980949401855,0.78,-0.01,99.0
3.3911123275756836,0.78,-0.01,99.0
3.3930318355560303,0.8,-0.01,99.0
3.3949809074401855,0.8,-0.01,99.0
3.3960559368133545,0.78,-0.01,99.0
3.398000955581665,0.63,-0.01,99.0
3.3990702629089355,0.63,-0.01,99.0
3.40104341506958,0.63,-0.01,99.0
3.402064561843872,0.62,-0.01,99.0
3.4040110111236572,0.49,-0.01,99.0
3.4050726890563965,0.49,-0.01,99.0
3.4070074558258057,0.44,-0.01,99.0
3.419055938720703,0.0,-0.01,99.0
3.420145273208618,0.3,-0.01,99.0
3.4220077991485596,0.3,-0.01,99.0
3.423159599304199,0.3,-0.01,99.0
3.4250500202178955,0.32,-0.01,99.0
3.426100492477417,0.35,-0.01,99.0
3.4280264377593994,0.35,-0.01,99.0
3.429090976715088,0.36,-0.0,99.0
3.431047201156616,0.36,-0.0,99.0
3.432982921600342,0.37,-0.0,99.0
3.434126853942871,0.38,-0.0,99.0
3.436032295227051,0.39,-0.0,99.0
3.4370665550231934,0.39,-0.0,99.0
3.439016580581665,0.39,-0.0,99.0
3.440077781677246,0.4,-0.0,99.0
3.4420206546783447,0.47,-0.0,99.0
3.4430861473083496,0.47,-0.0,99.0
3.4450998306274414,0.47,-0.0,99.0
3.4460763931274414,0.48,-0.0,99.0
3.4480504989624023,0.48,-0.0,99.0
3.449986219406128,0.48,-0.0,99.0
3.451042413711548,0.48,-0.0,99.0
3.4529902935028076,0.44,-0.0,99.0
3.4620258808135986,0.0,-0.0,99.0
3.4630894660949707,0.49,-0.0,99.0
3.465027093887329,0.49,-0.0,99.0
3.4670565128326416,0.49,-0.0,99.0
3.4681167602539062,0.5,0.0,99.0
3.469197988510132,0.5,0.0,99.0
3.4710142612457275,0.47,0.0,99.0
3.472088575363159,0.46,0.0,99.0
3.47402024269104,0.46,0.0,99.0
3.4750843048095703,0.46,-0.0,99.0
3.477097749710083,0.45,-0.0,99.0
3.478100299835205,0.45,-0.0,99.0
3.480048179626465,0.45,-0.0,99.0
3.481982946395874,0.5,-0.0,99.0
3.483025074005127,0.5,-0.0,99.0
3.484997510910034,0.5,-0.0,99.0
3.4861087799072266,0.51,-0.01,99.0
3.488070249557495,0.51,-0.01,99.0
3.4890713691711426,0.51,-0.01,99.0
3.4910213947296143,0.51,-0.01,99.0
3.49212384223938,0.47,-0.01,99.0
3.494013786315918,0.47,-0.01,99.0
3.4950790405273438,0.47,-0.01,99.0
3.4970247745513916,0.46,-0.01,99.0
3.4989829063415527,0.48,-0.01,99.0
3.500053882598877,0.48,-0.01,99.0
3.5020382404327393,0.48,-0.01,99.0
3.5030698776245117,0.51,-0.01,99.0
3.504993200302124,0.51,-0.01,99.0
3.5060935020446777,0.51,-0.01,99.0
3.5080301761627197,0.52,-0.01,99.0
3.509059190750122,0.49,-0.01,99.0
3.5110177993774414,0.49,-0.01,99.0
3.512155294418335,0.49,-0.01,99.0
3.5141589641571045,0.48,-0.01,99.0
3.5150885581970215,0.48,-0.01,99.0
3.517033338546753,0.47,-0.01,99.0
3.5190019607543945,0.47,-0.01,99.0
3.5201199054718018,0.51,-0.01,99.0
3.5219955444335938,0.51,-0.01,99.0
3.523076057434082,0.51,-0.01,99.0
3.525101661682129,0.52,-0.01,99.0
3.5261199474334717,0.53,-0.01,99.0
3.5280089378356934,0.53,-0.01,99.0
3.529069662094116,0.53,-0.01,99.0
3.5310606956481934,0.49,-0.0,99.0
3.532170534133911,0.49,-0.0,99.0
3.5340447425842285,0.49,-0.0,99.0
3.5350887775421143,0.49,0.0,99.0
3.546170949935913,0.0,0.01,99.0
3.5481677055358887,0.53,0.01,99.0
3.549070358276367,0.53,0.01,99.0
3.5510094165802,0.53,0.01,99.0
3.552112579345703,0.52,0.02,99.0
3.553994655609131,0.52,0.02,99.0
3.555169105529785,0.5,0.02,99.0
3.556079149246216,0.49,0.02,99.0
3.5580389499664307,0.49,0.02,99.0
3.559079170227051,0.5,0.02,99.0
3.5610415935516357,0.5,0.02,99.0
3.562072515487671,0.54,0.03,99.0
3.5640370845794678,0.55,0.03,99.0
3.5650670528411865,0.55,0.03,99.0
3.5670976638793945,0.55,0.02,99.0
3.568136692047119,0.54,0.02,99.0
3.5702273845672607,0.54,0.02,99.0
3.5710487365722656,0.54,0.02,99.0
3.5729854106903076,0.53,0.02,99.0
3.5740950107574463,0.51,0.02,99.0
3.5750670433044434,0.49,0.02,99.0
3.577026844024658,0.49,0.02,99.0
3.5880181789398193,0.0,0.01,99.0
3.5890607833862305,0.53,0.01,99.0
3.5901083946228027,0.53,0.01,99.0
3.59210205078125,0.53,0.01,99.0
3.5931196212768555,0.51,0.0,99.0
3.5950124263763428,0.51,0.0,99.0
3.5961484909057617,0.49,-0.01,99.0
3.598051071166992,0.48,-0.01,99.0
3.599104642868042,0.49,-0.01,99.0
3.601100444793701,0.53,-0.01,99.0
3.603057384490967,0.53,-0.01,99.0
3.604060173034668,0.56,-0.02,99.0
3.605999231338501,0.56,-0.02,99.0
3.6070454120635986,0.56,-0.02,99.0
3.609048366546631,0.56,-0.02,99.0
3.610081672668457,0.54,-0.03,99.0
3.612091302871704,0.54,-0.03,99.0
3.613091468811035,0.54,-0.03,99.0
3.6150360107421875,0.52,-0.02,99.0
3.6160638332366943,0.52,-0.02,99.0
3.618060827255249,0.52,-0.02,99.0
3.620000123977661,0.52,-0.02,99.0
3.621055841445923,0.55,-0.02,99.0
3.631066083908081,0.0,-0.03,99.0
3.632136344909668,0.53,-0.03,99.0
3.6340575218200684,0.53,-0.03,99.0
3.6352052688598633,0.52,-0.03,99.0
3.6370959281921387,0.52,-0.03,99.0
3.638995885848999,0.52,-0.03,99.0
3.640047788619995,0.55,-0.03,99.0
3.642011880874634,0.55,-0.03,99.0
3.6430981159210205,0.55,-0.03,99.0
3.645066976547241,0.55,-0.02,99.0
3.646087169647217,0.55,-0.02,99.0
3.6480231285095215,0.55,-0.02,99.0
3.64908766746521,0.55,-0.02,99.0
3.651043653488159,0.51,-0.02,99.0
3.6531405448913574,0.51,-0.02,99.0
3.654031991958618,0.51,-0.02,99.0
3.655986785888672,0.5,-0.05,99.0
3.657111406326294,0.49,-0.05,99.0
3.6590237617492676,0.49,-0.05,99.0
3.6600611209869385,0.49,-0.05,99.0
3.6620266437530518,0.52,-0.07,99.0
3.6630983352661133,0.52,-0.07,99.0
3.6650230884552,0.52,-0.07,99.0
3.666168451309204,0.53,-0.07,99.0
3.668095111846924,0.5,-0.05,99.0
3.669213056564331,0.5,-0.05,99.0
3.6711506843566895,0.5,-0.05,99.0
3.672178030014038,0.47,0.01,99.0
3.674055337905884,0.47,0.01,99.0
3.6751291751861572,0.47,0.01,99.0
3.6770858764648438,0.46,0.05,99.0
3.6781563758850098,0.48,0.21,98.0
3.68009614944458,0.48,0.21,98.0
3.6811211109161377,0.48,0.21,98.0
3.6830790042877197,0.48,0.21,98.0
3.684117555618286,0.5,0.28,98.0
3.6860225200653076,0.5,0.28,98.0
3.6871049404144287,0.5,0.3,98.0
3.6881046295166016,0.49,0.28,98.0
3.690129280090332,0.47,0.28,98.0
3.6911063194274902,0.47,0.28,98.0
3.693143129348755,0.47,0.28,98.0
3.6942172050476074,0.44,0.13,98.0
3.696181297302246,0.44,0.13,98.0
3.697171211242676,0.44,0.13,98.0
3.6990435123443604,0.44,0.13,98.0
3.70007586479187,0.46,0.0,98.0
3.7020294666290283,0.46,0.0,98.0
3.7030770778656006,0.47,-0.06,98.0
3.705004930496216,0.47,-0.06,98.0
3.715074062347412,0.0,-0.17,98.0
3.717031240463257,0.43,-0.17,98.0
3.7181620597839355,0.43,-0.17,98.0
3.720045566558838,0.43,-0.17,98.0
3.722015619277954,0.45,-0.14,98.0
3.723120927810669,0.47,-0.12,98.0
3.725022315979004,0.47,-0.12,98.0
3.7260947227478027,0.48,-0.08,98.0
3.7280771732330322,0.48,-0.08,98.0
3.7290706634521484,0.48,-0.07,98.0
3.7310783863067627,0.48,-0.03,98.0
3.732156753540039,0.44,-0.03,98.0
3.734095811843872,0.44,-0.03,98.0
3.735144853591919,0.44,-0.03,98.0
3.737055778503418,0.45,-0.01,98.0
3.7381222248077393,0.45,-0.01,98.0
3.7400808334350586,0.45,-0.01,98.0
3.742008686065674,0.45,-0.01,98.0
3.7510569095611572,0.0,0.01,98.0
3.7521145343780518,0.45,0.01,98.0
3.753999710083008,0.45,0.01,98.0
3.7551119327545166,0.45,0.01,98.0
3.7571160793304443,0.44,0.01,98.0
3.758056163787842,0.44,0.01,98.0
3.759125232696533,0.44,0.01,98.0
3.7610325813293457,0.47,0.01,98.0
3.762122869491577,0.47,0.01,98.0
3.7640724182128906,0.47,0.01,98.0
3.765087604522705,0.49,0.01,98.0
3.767080307006836,0.49,0.01,98.0
3.768132448196411,0.49,0.01,98.0
3.7700016498565674,0.49,0.01,98.0
3.7710721492767334,0.48,0.01,98.0
3.773008346557617,0.46,0.01,98.0
3.7740726470947266,0.45,0.01,98.0
3.775106906890869,0.44,0.01,98.0
3.777064800262451,0.46,0.01,98.0
3.7780935764312744,0.46,0.01,98.0
3.7800657749176025,0.46,0.01,98.0
3.781078577041626,0.46,0.01,98.0
3.783034563064575,0.48,0.01,98.0
3.7840752601623535,0.48,0.01,98.0
3.786043882369995,0.49,0.01,98.0
3.787064552307129,0.49,0.01,98.0
3.7890074253082275,0.48,0.01,98.0
3.7901229858398438,0.48,0.01,98.0
3.791125774383545,0.47,0.01,98.0
3.793050527572632,0.47,0.0,98.0
3.794113874435425,0.44,0.0,98.0
3.7960455417633057,0.44,0.0,98.0
3.797085762023926,0.44,0.0,98.0
3.7990126609802246,0.44,0.0,98.0
3.800156831741333,0.47,0.0,98.0
3.8020544052124023,0.47,0.0,98.0
3.8030803203582764,0.48,0.0,98.0
3.8050119876861572,0.5,0.0,98.0
3.806121349334717,0.49,0.0,98.0
3.807192802429199,0.5,0.0,98.0
3.809056043624878,0.49,0.0,98.0
3.8101000785827637,0.48,0.0,98.0
3.812074661254883,0.48,0.0,98.0
3.8131003379821777,0.46,0.01,98.0
3.815045118331909,0.46,0.01,98.0
3.8160831928253174,0.45,0.01,98.0
3.8180367946624756,0.44,0.01,98.0
3.819096565246582,0.44,0.01,98.0
3.8210322856903076,0.45,0.0,98.0
3.822080612182617,0.49,0.0,98.0
3.823997974395752,0.49,0.0,98.0
3.8250718116760254,0.49,0.0,98.0
3.8261795043945312,0.49,0.0,98.0
3.8280394077301025,0.49,0.0,98.0
3.8290998935699463,0.48,0.0,98.0
3.8310329914093018,0.48,0.0,98.0
3.832141876220703,0.45,-0.0,98.0
3.834059000015259,0.45,-0.0,98.0
3.8351285457611084,0.45,-0.0,98.0
3.837061643600464,0.45,0.0,98.0
3.8381035327911377,0.47,0.0,98.0
3.8400542736053467,0.48,0.0,98.0
3.8411073684692383,0.48,0.0,98.0
3.843024492263794,0.5,0.0,98.0
3.845078706741333,0.5,0.0,98.0
3.846055269241333,0.5,0.0,98.0
3.847118616104126,0.51,0.0,98.0
3.8590402603149414,0.0,0.0,98.0
3.8600902557373047,0.52,0.0,98.0
3.8620176315307617,0.52,0.0,98.0
3.8630902767181396,0.52,0.0,98.0
3.865018129348755,0.53,0.01,98.0
3.8660690784454346,0.53,0.01,98.0
3.8671727180480957,0.53,0.01,98.0
3.8690521717071533,0.53,0.01,98.0
3.8700993061065674,0.52,0.01,98.0
3.872039318084717,0.49,0.01,98.0
3.8731014728546143,0.49,0.01,98.0
3.8750431537628174,0.49,0.01,98.0
3.876098871231079,0.47,0.01,98.0
3.8780343532562256,0.47,0.01,98.0
3.8791284561157227,0.47,0.0,98.0
3.881026268005371,0.51,-0.0,98.0
3.882070779800415,0.51,-0.0,98.0
3.8840816020965576,0.51,-0.0,98.0
3.885159492492676,0.51,-0.0,98.0
3.8870317935943604,0.51,-0.0,98.0
3.8881337642669678,0.51,-0.0,98.0
3.8901097774505615,0.51,-0.0,98.0
3.8911123275756836,0.46,-0.0,98.0
3.8930630683898926,0.46,-0.0,98.0
3.902132034301758,0.0,0.02,98.0
3.9031660556793213,0.49,0.02,98.0
3.9050326347351074,0.49,0.02,98.0
3.906163215637207,0.49,0.02,98.0
3.908029794692993,0.48,0.02,98.0
3.9091014862060547,0.48,0.02,98.0
3.9110212326049805,0.44,0.02,98.0
3.912139415740967,0.44,0.02,98.0
3.914029836654663,0.43,0.02,98.0
3.9150824546813965,0.43,0.02,98.0
3.9161159992218018,0.43,0.02,98.0
3.918090343475342,0.43,0.02,98.0
3.919133186340332,0.43,0.02,98.0
3.921050548553467,0.47,0.02,98.0
3.9221205711364746,0.47,0.02,98.0
3.924100160598755,0.47,0.02,98.0
3.9251186847686768,0.48,0.02,98.0
3.927030086517334,0.48,0.02,98.0
3.9281411170959473,0.48,0.02,98.0
3.9300239086151123,0.47,0.02,98.0
3.931068181991577,0.47,0.02,98.0
3.933014392852783,0.44,0.03,98.0
3.9341342449188232,0.44,0.03,98.0
3.9351086616516113,0.43,0.03,98.0
3.937073230743408,0.43,0.02,98.0
3.9381022453308105,0.45,0.02,98.0
3.94006085395813,0.45,0.02,98.0
3.9411516189575195,0.45,0.02,98.0
3.943035364151001,0.48,0.01,98.0
3.9441518783569336,0.48,0.01,98.0
3.9460713863372803,0.48,0.01,98.0
3.947098970413208,0.48,0.01,98.0
3.9490342140197754,0.47,0.01,98.0
3.9500856399536133,0.47,0.01,98.0
3.951129674911499,0.45,0.01,98.0
3.9530811309814453,0.45,0.01,98.0
3.9541192054748535,0.42,0.0,98.0
3.956045389175415,0.42,0.0,98.0
3.9571478366851807,0.42,0.0,98.0
3.959317922592163,0.42,-0.0,98.0
3.9601175785064697,0.45,-0.0,98.0
3.9620707035064697,0.45,-0.0,98.0
3.963155508041382,0.45,-0.0,98.0
3.9651594161987305,0.45,-0.0,98.0
3.9670896530151367,0.45,-0.0,98.0
3.968090295791626,0.45,-0.0,98.0
3.970043897628784,0.44,-0.01,98.0
3.971064567565918,0.41,-0.01,98.0
3.973039150238037,0.41,-0.01,98.0
3.974139451980591,0.41,-0.01,98.0
3.9760448932647705,0.42,-0.01,98.0
3.977137565612793,0.42,-0.01,98.0
3.9790732860565186,0.47,-0.01,98.0
3.9801337718963623,0.47,-0.01,98.0
3.9820668697357178,0.62,-0.01,98.0
3.9840164184570312,0.62,-0.01,98.0
3.9850645065307617,0.62,-0.01,98.0
3.9870285987854004,0.76,-0.01,98.0
3.9881160259246826,0.76,-0.01,98.0
3.990086078643799,0.76,-0.01,98.0
3.991147994995117,0.76,-0.01,98.0
3.9930551052093506,0.78,-0.01,98.0
3.994100570678711,0.78,-0.01,98.0
3.99611234664917,0.77,-0.01,98.0
3.9970970153808594,0.77,-0.01,98.0
3.999058723449707,0.63,-0.02,98.0
4.0010223388671875,0.63,-0.02,98.0
4.002082109451294,0.63,-0.02,98.0
4.004024028778076,0.53,-0.02,98.0
4.005065202713013,0.53,-0.02,98.0
4.007026672363281,0.46,-0.02,98.0
4.0081024169921875,0.46,-0.02,98.0
4.010062217712402,0.35,-0.02,98.0
4.011137008666992,0.35,-0.02,98.0
4.013055086135864,0.35,-0.02,98.0
4.014135837554932,0.29,-0.02,98.0
4.016052484512329,0.29,-0.02,98.0
4.0170958042144775,0.29,-0.02,98.0
4.019128084182739,0.29,-0.02,98.0
4.02101731300354,0.31,-0.01,98.0
4.022092819213867,0.32,-0.01,98.0
4.024030447006226,0.33,-0.01,98.0
4.025161027908325,0.37,-0.01,98.0
4.0352253913879395,0.0,0.0,98.0
4.03708815574646,0.42,0.0,98.0
4.038120269775391,0.42,0.0,98.0
4.040074348449707,0.42,0.0,98.0
4.041133642196655,0.46,0.0,98.0
4.043050527572632,0.46,0.0,98.0
4.044166803359985,0.47,0.0,98.0
4.0460309982299805,0.49,0.0,98.0
4.047152996063232,0.49,0.0,98.0
4.049013614654541,0.49,0.0,98.0
4.05013632774353,0.49,0.0,98.0
4.052019119262695,0.45,0.0,98.0
4.0530760288238525,0.45,0.0,98.0
4.054154872894287,0.45,0.0,98.0
4.0561323165893555,0.44,-0.0,98.0
4.058014631271362,0.44,-0.0,98.0
4.05907940864563,0.44,-0.0,98.0
4.06102728843689,0.45,-0.0,98.0
4.062143564224243,0.5,-0.0,98.0
4.0640552043914795,0.5,-0.0,98.0
4.065104961395264,0.5,-0.0,98.0
4.067112684249878,0.48,-0.0,98.0
4.068156003952026,0.48,-0.0,98.0
4.070084095001221,0.48,-0.0,98.0
4.0711259841918945,0.47,-0.0,98.0
4.073063850402832,0.44,-0.0,98.0
4.074195861816406,0.44,-0.0,98.0
4.076073884963989,0.44,-0.0,98.0
4.078030109405518,0.44,-0.0,98.0
4.079272508621216,0.45,-0.0,98.0
4.081047773361206,0.47,-0.0,98.0
4.082103729248047,0.47,-0.0,98.0
4.084046840667725,0.5,-0.0,98.0
4.085171937942505,0.5,-0.0,98.0
4.087047100067139,0.5,-0.0,98.0
4.088121175765991,0.5,-0.0,98.0
4.090126037597656,0.48,-0.0,98.0
4.091238021850586,0.48,-0.0,98.0
4.093075752258301,0.48,-0.0,98.0
4.095018625259399,0.46,-0.0,98.0
4.09612250328064,0.46,-0.0,98.0
4.098028659820557,0.46,-0.0,98.0
4.099102020263672,0.46,-0.0,98.0
4.11024808883667,0.0,-0.01,98.0
4.11214017868042,0.48,-0.01,98.0
4.113137722015381,0.48,-0.01,98.0
4.115061044692993,0.47,-0.01,98.0
4.11612343788147,0.47,-0.01,98.0
4.11809778213501,0.48,-0.01,98.0
4.119203329086304,0.48,-0.01,98.0
4.121078014373779,0.51,-0.01,98.0
4.123045206069946,0.51,-0.01,98.0
4.124099254608154,0.52,-0.01,98.0
4.126053810119629,0.53,-0.01,98.0
4.127180814743042,0.53,-0.01,98.0
4.129047393798828,0.52,-0.01,98.0
4.130175352096558,0.52,-0.01,98.0
4.132068634033203,0.49,-0.0,98.0
4.133127450942993,0.49,-0.0,98.0
4.13515305519104,0.49,-0.0,98.0
4.136176347732544,0.48,0.0,98.0
4.138063192367554,0.5,0.0,98.0
4.13911509513855,0.5,0.0,98.0
4.141057968139648,0.5,0.0,98.0
4.151195526123047,0.0,0.02,98.0
4.1530914306640625,0.5,0.02,98.0
4.154115200042725,0.5,0.02,98.0
4.156116962432861,0.5,0.02,98.0
4.157159328460693,0.5,0.02,98.0
4.159121751785278,0.5,0.03,98.0
4.160104274749756,0.52,0.03,98.0
4.162042617797852,0.52,0.03,98.0
4.163139343261719,0.54,0.03,98.0
4.165032863616943,0.55,0.03,98.0
4.1660895347595215,0.55,0.03,98.0
4.167197942733765,0.55,0.02,98.0
4.1690833568573,0.54,0.02,98.0
4.170177936553955,0.54,0.02,98.0
4.1720521450042725,0.53,0.02,98.0
4.173127174377441,0.49,0.02,98.0
4.175045490264893,0.49,0.02,98.0
4.176164150238037,0.49,0.02,98.0
4.178050994873047,0.49,0.02,98.0
4.179134368896484,0.51,0.01,98.0
4.181039333343506,0.52,0.01,98.0
4.182085037231445,0.54,0.01,98.0
4.183131456375122,0.54,0.01,98.0
4.185093402862549,0.56,0.01,98.0
4.186200141906738,0.56,0.01,98.0
4.1880574226379395,0.56,0.01,98.0
4.189122200012207,0.56,0.0,98.0
4.191119432449341,0.52,0.0,98.0
4.192146062850952,0.52,0.0,98.0
4.194033622741699,0.52,0.0,98.0
4.195102214813232,0.5,-0.0,98.0
4.19707727432251,0.5,-0.0,98.0
4.198181390762329,0.5,-0.01,98.0
4.200065612792969,0.5,-0.01,98.0
4.201221704483032,0.55,-0.02,98.0
4.203107595443726,0.55,-0.02,98.0
4.204140663146973,0.55,-0.02,98.0
4.20608377456665,0.55,-0.03,98.0
4.208036422729492,0.56,-0.03,98.0
4.2091264724731445,0.56,-0.03,98.0
4.211036205291748,0.56,-0.03,98.0
4.212181091308594,0.52,-0.03,98.0
4.2140727043151855,0.51,-0.02,98.0
4.215122699737549,0.51,-0.02,98.0
4.217080593109131,0.51,-0.02,98.0
4.218126058578491,0.51,-0.02,98.0
4.220121383666992,0.53,-0.02,98.0
4.221159934997559,0.53,-0.02,98.0
4.223095178604126,0.57,-0.01,98.0
4.225043535232544,0.57,-0.01,98.0
4.226104736328125,0.57,-0.01,98.0
4.228047132492065,0.57,-0.01,98.0
4.2290940284729,0.55,-0.02,98.0
4.231066942214966,0.55,-0.02,98.0
4.232114315032959,0.55,-0.02,98.0
4.234111547470093,0.52,-0.02,98.0
4.23524022102356,0.52,-0.02,98.0
4.237151622772217,0.52,-0.02,98.0
4.238135814666748,0.52,-0.03,98.0
4.240071058273315,0.56,-0.03,98.0
4.242037057876587,0.56,-0.03,98.0
4.243077278137207,0.56,-0.03,98.0
4.24505352973938,0.56,-0.02,98.0
4.246097087860107,0.57,-0.02,98.0
4.248048782348633,0.56,-0.02,98.0
4.249218225479126,0.56,-0.02,98.0
4.251083135604858,0.52,-0.03,98.0
4.252122163772583,0.52,-0.03,98.0
4.254090785980225,0.52,-0.03,98.0
4.255132675170898,0.51,-0.05,98.0
4.257082223892212,0.5,-0.05,98.0
4.25822114944458,0.5,-0.05,98.0
4.260091304779053,0.5,-0.05,98.0
4.262051105499268,0.53,-0.07,98.0
4.263163805007935,0.53,-0.07,98.0
4.265054941177368,0.53,-0.07,98.0
4.266093969345093,0.53,-0.07,98.0
4.268127202987671,0.5,-0.07,98.0
4.269145965576172,0.5,-0.07,98.0
4.27710223197937,0.0,0.17,98.0
4.279106616973877,0.49,0.17,98.0
4.2801127433776855,0.49,0.17,98.0
4.282034158706665,0.49,0.17,98.0
4.28308892250061,0.5,0.21,98.0
4.284143686294556,0.5,0.27,98.0
4.286067247390747,0.5,0.27,98.0
4.287218809127808,0.5,0.27,98.0
4.28905725479126,0.49,0.27,98.0
4.290128946304321,0.44,0.25,98.0
4.292194843292236,0.44,0.25,98.0
4.2931013107299805,0.44,0.25,98.0
4.295042991638184,0.44,0.16,98.0
4.296162843704224,0.43,0.16,98.0
4.2980310916900635,0.43,0.16,98.0
4.299079179763794,0.44,0.11,98.0
4.301048755645752,0.48,-0.06,98.0
4.3021135330200195,0.48,-0.06,98.0
4.304063081741333,0.48,-0.06,98.0
4.305093050003052,0.48,-0.06,98.0
4.307091951370239,0.49,-0.11,98.0
4.308128356933594,0.49,-0.11,98.0
4.310057878494263,0.48,-0.14,98.0
4.311142921447754,0.44,-0.18,98.0
4.313131093978882,0.43,-0.18,98.0
4.314312934875488,0.44,-0.18,98.0
4.316094398498535,0.43,-0.18,98.0
4.318034410476685,0.44,-0.16,98.0
4.3191564083099365,0.44,-0.16,98.0
4.321045398712158,0.46,-0.14,98.0
4.322163343429565,0.46,-0.09,98.0
4.324136257171631,0.49,-0.09,98.0
4.325133800506592,0.49,-0.09,98.0
4.327059745788574,0.49,-0.09,98.0
4.3281660079956055,0.47,-0.06,98.0
4.3300981521606445,0.46,-0.06,98.0
4.331141233444214,0.46,-0.06,98.0
4.333131313323975,0.46,-0.02,98.0
4.335047245025635,0.43,-0.02,98.0
4.336107492446899,0.43,-0.02,98.0
4.33804178237915,0.43,-0.02,98.0
4.33908748626709,0.46,-0.0,98.0
4.3410704135894775,0.46,-0.0,98.0
4.342101335525513,0.46,-0.0,98.0
4.344066619873047,0.48,-0.0,98.0
4.345126390457153,0.49,0.01,98.0
4.3471291065216064,0.49,0.01,98.0
4.3481175899505615,0.49,0.01,98.0
4.350082159042358,0.49,0.01,98.0
4.351116418838501,0.45,0.01,98.0
4.353036403656006,0.45,0.01,98.0
4.354107141494751,0.44,0.01,98.0
4.355185031890869,0.44,0.0,98.0
4.3570897579193115,0.45,0.0,98.0
4.358162879943848,0.45,0.0,98.0
4.360078811645508,0.45,0.0,98.0
4.361135482788086,0.48,-0.0,98.0
4.363093852996826,0.49,-0.0,98.0
4.3641438484191895,0.5,-0.0,98.0
4.366093397140503,0.5,-0.0,98.0
4.368063926696777,0.49,-0.0,98.0
4.369131565093994,0.49,-0.0,98.0
4.371052265167236,0.48,-0.0,98.0
4.3721160888671875,0.44,-0.0,98.0
4.374093055725098,0.44,-0.0,98.0
4.3751397132873535,0.44,-0.0,98.0
4.377076864242554,0.43,0.0,98.0
4.378164052963257,0.44,0.0,98.0
4.38006854057312,0.44,0.0,98.0
4.381115913391113,0.46,0.0,98.0
4.383044004440308,0.46,0.01,98.0
4.384119510650635,0.49,0.01,98.0
4.3851399421691895,0.49,0.01,98.0
4.387083292007446,0.49,0.01,98.0
4.388208866119385,0.48,0.01,98.0
4.39014196395874,0.48,0.01,98.0
4.391214609146118,0.47,0.01,98.0
4.393087863922119,0.46,0.01,98.0
4.394130706787109,0.44,0.0,98.0
4.39608359336853,0.44,0.0,98.0
4.397113561630249,0.44,0.0,98.0
4.399048805236816,0.44,0.0,98.0
4.400131940841675,0.48,0.0,98.0
4.402056694030762,0.49,0.0,98.0
4.403104066848755,0.48,0.0,98.0
4.404140949249268,0.49,0.0,98.0
4.406097650527954,0.49,0.0,98.0
4.407177448272705,0.49,0.0,98.0
4.409088611602783,0.49,0.0,98.0
4.4211344718933105,0.0,0.0,98.0
4.422120809555054,0.5,0.0,98.0
4.424062490463257,0.5,0.0,98.0
4.425114393234253,0.5,0.0,98.0
4.426152944564819,0.5,0.0,98.0
4.428095817565918,0.5,0.0,98.0
4.429152727127075,0.48,0.0,98.0
4.431071043014526,0.48,0.0,98.0
4.432216644287109,0.46,-0.0,98.0
4.434186935424805,0.46,-0.0,98.0
4.435253858566284,0.45,-0.0,98.0
4.4371178150177,0.47,0.0,98.0
4.438138008117676,0.47,0.0,98.0
4.440072298049927,0.47,0.0,98.0
4.441149473190308,0.48,0.0,98.0
4.443071126937866,0.52,0.01,98.0
4.4441845417022705,0.52,0.01,98.0
4.446074485778809,0.52,0.01,98.0
4.447133541107178,0.52,0.01,98.0
4.44904637336731,0.5,0.01,98.0
4.450088024139404,0.5,0.01,98.0
4.451190233230591,0.48,0.01,98.0
4.453106164932251,0.48,0.01,98.0
4.454172849655151,0.45,0.01,98.0
4.456129312515259,0.45,0.01,98.0
4.457216739654541,0.45,0.01,98.0
4.459087610244751,0.45,0.01,98.0
4.460127830505371,0.5,0.01,98.0
4.462077856063843,0.5,0.01,98.0
4.463136911392212,0.5,0.01,98.0
4.465054512023926,0.51,0.0,98.0
4.46611762046814,0.51,0.0,98.0
4.468059539794922,0.51,0.0,98.0
4.469114303588867,0.51,0.0,98.0
4.4701597690582275,0.47,0.0,98.0
4.47211217880249,0.47,0.0,98.0
4.47313928604126,0.47,0.0,98.0
4.47514009475708,0.47,0.0,98.0
4.47617769241333,0.47,0.0,98.0
4.4780824184417725,0.47,0.0,98.0
4.479179620742798,0.49,0.0,98.0
4.481138706207275,0.49,0.0,98.0
4.482121706008911,0.54,0.0,98.0
4.484050273895264,0.54,0.0,98.0
4.485255479812622,0.54,0.0,98.0
4.486150026321411,0.53,0.0,98.0
4.488108158111572,0.53,0.0,98.0
4.489146709442139,0.5,0.0,98.0
4.491199016571045,0.5,0.0,98.0
4.4921770095825195,0.46,0.0,98.0
4.494093656539917,0.46,0.0,98.0
4.495107889175415,0.46,0.0,98.0
4.497068881988525,0.46,0.0,98.0
4.498180866241455,0.5,0.01,98.0
4.500071048736572,0.5,0.01,98.0
4.50111985206604,0.5,0.01,98.0
4.503068208694458,0.5,0.01,98.0
4.504111289978027,0.52,0.01,98.0
4.505138397216797,0.52,0.01,98.0
4.507084608078003,0.51,0.01,98.0
4.508207321166992,0.47,0.01,98.0
4.510094165802002,0.47,0.01,98.0
4.511141300201416,0.47,0.01,98.0
4.5130774974823,0.47,0.01,98.0
4.514156341552734,0.45,0.02,98.0
4.516053915023804,0.45,0.02,98.0
4.517181873321533,0.44,0.02,98.0
4.519058704376221,0.44,0.02,98.0
4.52013373374939,0.47,0.02,98.0
4.521197319030762,0.47,0.02,98.0
4.523113250732422,0.48,0.02,98.0
4.524154424667358,0.48,0.02,98.0
4.526086807250977,0.49,0.02,98.0
4.527138710021973,0.49,0.02,98.0
4.529096841812134,0.49,0.02,98.0
4.530148983001709,0.46,0.02,98.0
4.532092809677124,0.46,0.02,98.0
4.533190011978149,0.46,0.02,98.0
4.53508734703064,0.45,0.03,98.0
4.536197662353516,0.45,0.03,98.0
4.538038015365601,0.45,0.03,98.0
4.54626202583313,0.0,0.01,98.0
4.548118352890015,0.48,0.01,98.0
4.549143314361572,0.48,0.01,98.0
4.551079750061035,0.47,0.01,98.0
4.552186489105225,0.46,0.01,98.0
4.5540711879730225,0.46,0.01,98.0
4.55513072013855,0.44,0.01,98.0
4.557129383087158,0.44,0.01,98.0
4.5581724643707275,0.44,0.01,98.0
4.5600502490997314,0.44,0.0,98.0
4.561116695404053,0.49,0.0,98.0
4.562151670455933,0.49,0.0,98.0
4.564089059829712,0.49,0.0,98.0
4.56521463394165,0.5,-0.0,98.0
4.567165851593018,0.5,-0.0,98.0
4.569082021713257,0.5,-0.0,98.0
4.570159435272217,0.49,-0.0,98.0
4.572073698043823,0.43,-0.0,98.0
4.573125123977661,0.43,-0.0,98.0
4.575084209442139,0.43,-0.0,98.0
4.576136350631714,0.41,-0.01,98.0
4.578078985214233,0.41,-0.01,98.0
4.579144239425659,0.41,-0.01,98.0
4.581211805343628,0.42,-0.01,98.0
4.582172155380249,0.47,-0.02,98.0
4.584120035171509,0.47,-0.02,98.0
4.585165500640869,0.47,-0.02,98.0
4.587105751037598,0.47,-0.02,98.0
4.589065074920654,0.52,-0.02,98.0
4.590206861495972,0.52,-0.02,98.0
4.5921220779418945,0.54,-0.02,98.0
4.593190670013428,0.63,-0.02,98.0
4.595091342926025,0.63,-0.02,98.0
4.5961384773254395,0.63,-0.02,98.0
4.598105192184448,0.63,-0.02,98.0
4.599153757095337,0.75,-0.02,98.0
4.601163625717163,0.75,-0.02,98.0
4.602155685424805,0.81,-0.02,98.0
4.604123115539551,0.84,-0.01,98.0
4.6060497760772705,0.83,-0.01,98.0
4.607145309448242,0.83,-0.01,98.0
4.609081983566284,0.83,-0.01,98.0
4.6101484298706055,0.68,-0.01,98.0
4.612123489379883,0.68,-0.01,98.0
4.613137483596802,0.58,-0.01,98.0
4.62519907951355,0.0,-0.01,98.0
4.62713885307312,0.38,-0.01,98.0
4.628124237060547,0.38,-0.01,98.0
4.630095958709717,0.38,-0.01,98.0
4.631152868270874,0.36,-0.01,98.0
4.633150339126587,0.33,-0.01,98.0
4.634170293807983,0.33,-0.01,98.0
4.636154890060425,0.33,-0.01,98.0
4.637166738510132,0.33,-0.01,98.0
4.639116525650024,0.37,-0.01,98.0
4.641059398651123,0.37,-0.01,98.0
4.64212441444397,0.45,-0.01,98.0
4.644082307815552,0.45,-0.01,98.0
4.645128011703491,0.45,-0.01,98.0
4.64715838432312,0.46,-0.0,98.0
4.648145914077759,0.48,-0.0,98.0
4.65008544921875,0.48,-0.0,98.0
4.651149034500122,0.48,-0.0,98.0
4.653099298477173,0.46,0.0,98.0
4.654213905334473,0.46,0.0,98.0
4.6561439037323,0.46,0.0,98.0
4.657127857208252,0.46,0.0,98.0
4.659080505371094,0.49,0.0,98.0
4.668282985687256,0.0,-0.0,98.0
4.67012619972229,0.49,-0.0,98.0
4.671159982681274,0.49,-0.0,98.0
4.673102617263794,0.49,-0.0,98.0
4.674234628677368,0.48,-0.0,98.0
4.682209730148315,0.0,-0.0,98.0
4.68406867980957,0.52,-0.0,98.0
4.685154438018799,0.52,-0.0,98.0
4.687074661254883,0.52,-0.0,98.0
4.68814492225647,0.52,-0.0,98.0
4.690151214599609,0.5,-0.0,98.0
4.6911461353302,0.49,-0.0,98.0
4.693118572235107,0.49,-0.0,98.0
4.694161891937256,0.47,-0.0,98.0
4.696100950241089,0.47,-0.0,98.0
4.6980671882629395,0.47,-0.0,98.0
4.699113368988037,0.47,-0.0,98.0
4.701095819473267,0.51,-0.0,98.0
4.70220947265625,0.51,-0.0,98.0
4.7041015625,0.53,-0.0,98.0
4.705140829086304,0.53,-0.0,98.0
4.707107305526733,0.53,-0.0,98.0
4.7081639766693115,0.53,-0.0,98.0
4.7100989818573,0.53,-0.0,98.0
4.711163282394409,0.51,-0.0,98.0
4.713132858276367,0.49,-0.0,98.0
4.7143073081970215,0.49,-0.0,98.0
4.716111421585083,0.48,-0.0,98.0
4.718047380447388,0.48,-0.0,98.0
4.725189924240112,0.0,-0.0,98.0
4.727095603942871,0.53,-0.0,98.0
4.728251934051514,0.53,-0.0,98.0
4.730098247528076,0.53,-0.0,98.0
4.731169700622559,0.52,-0.0,98.0
4.733106851577759,0.49,0.0,98.0
4.735085725784302,0.49,0.0,98.0
4.736118793487549,0.49,0.0,98.0
4.737298011779785,0.49,0.0,98.0
4.739182233810425,0.53,0.01,98.0
4.740217685699463,0.53,0.01,98.0
4.742152690887451,0.53,0.01,98.0
4.743223428726196,0.54,0.01,98.0
4.7451252937316895,0.56,0.0,98.0
4.746215343475342,0.56,0.0,98.0
4.748108863830566,0.55,0.0,98.0
4.749177694320679,0.56,0.0,98.0
4.750215768814087,0.53,0.0,98.0
4.752148628234863,0.53,0.0,98.0
4.753234624862671,0.51,0.0,98.0
4.755108118057251,0.51,0.0,98.0
4.756190776824951,0.52,0.0,98.0
4.758106231689453,0.52,0.0,98.0
4.7591352462768555,0.52,0.0,98.0
4.761162042617798,0.57,0.0,98.0
4.762262582778931,0.57,0.0,98.0
4.76409125328064,0.57,0.0,98.0
4.76513671875,0.57,0.01,98.0
4.766152620315552,0.55,0.02,98.0
4.768175363540649,0.55,0.02,98.0
4.769169569015503,0.55,0.02,98.0
4.77109694480896,0.55,0.02,98.0
4.772153615951538,0.54,0.02,98.0
4.77413535118103,0.51,0.02,98.0
4.775205373764038,0.51,0.02,98.0
4.777082920074463,0.51,0.02,98.0
4.778157711029053,0.53,0.02,98.0
4.780083179473877,0.53,0.02,98.0
4.781137943267822,0.54,0.02,98.0
4.783070087432861,0.58,0.02,98.0
4.784106016159058,0.58,0.02,98.0
4.785167217254639,0.58,0.02,98.0
4.7871198654174805,0.58,0.02,98.0
4.7881715297698975,0.57,0.01,98.0
4.7901153564453125,0.57,0.01,98.0
4.7912211418151855,0.55,0.01,98.0
4.793087959289551,0.55,0.01,98.0
4.794212579727173,0.52,0.01,98.0
4.79607629776001,0.52,0.01,98.0
4.797124624252319,0.52,0.01,98.0
4.799076795578003,0.52,0.0,98.0
4.800140857696533,0.58,0.0,98.0
4.801203966140747,0.58,0.0,98.0
4.8031580448150635,0.58,0.0,98.0
4.804169654846191,0.58,-0.01,98.0
4.806185722351074,0.58,-0.01,98.0
4.808067083358765,0.58,-0.01,98.0
4.809122800827026,0.58,-0.01,98.0
4.811111211776733,0.56,-0.01,98.0
4.812160015106201,0.56,-0.01,98.0
4.814162254333496,0.54,-0.02,98.0
4.815165996551514,0.54,-0.02,98.0
4.817093372344971,0.55,-0.02,98.0
4.818162441253662,0.55,-0.02,98.0
4.820161819458008,0.55,-0.02,98.0
4.821182012557983,0.59,-0.02,98.0
4.823286056518555,0.59,-0.02,98.0
4.825092077255249,0.59,-0.02,98.0
4.831210136413574,0.0,-0.02,98.0
4.833130121231079,0.55,-0.02,98.0
4.835097074508667,0.55,-0.02,98.0
4.836226940155029,0.55,-0.02,98.0
4.838108539581299,0.58,-0.02,98.0
4.839144229888916,0.58,-0.02,98.0
4.8410890102386475,0.58,-0.02,98.0
4.842208623886108,0.58,-0.03,98.0
4.84410834312439,0.6,-0.03,98.0
4.845223665237427,0.6,-0.03,98.0
4.847412586212158,0.6,-0.03,98.0
4.8481762409210205,0.57,-0.03,98.0
4.85014533996582,0.57,-0.03,98.0
4.8520731925964355,0.57,-0.03,98.0
4.8531365394592285,0.57,-0.03,98.0
4.855081558227539,0.55,-0.02,98.0
4.856205940246582,0.55,-0.02,98.0
4.858100891113281,0.55,-0.02,98.0
4.859158277511597,0.59,-0.02,98.0
4.861107110977173,0.59,-0.02,98.0
4.862222194671631,0.59,-0.02,98.0
4.864164352416992,0.59,-0.02,98.0
4.865176677703857,0.59,-0.03,98.0
4.867289781570435,0.59,-0.03,98.0
4.868258237838745,0.57,-0.04,98.0
4.870158433914185,0.57,-0.08,98.0
4.872070550918579,0.51,-0.08,98.0
4.873145580291748,0.51,-0.08,98.0
4.875097990036011,0.51,-0.08,98.0
4.876219987869263,0.5,-0.08,98.0
4.878090143203735,0.5,-0.08,98.0
4.879181861877441,0.52,-0.08,98.0
4.88114070892334,0.51,-0.01,98.0
4.882157325744629,0.55,-0.01,98.0
4.88410758972168,0.55,-0.01,98.0
4.8851869106292725,0.55,-0.01,98.0
4.887135028839111,0.51,0.14,98.0
4.888238430023193,0.51,0.14,98.0
4.890124797821045,0.51,0.14,98.0
4.891168832778931,0.51,0.14,98.0
4.8931050300598145,0.48,0.24,96.0
4.894150018692017,0.48,0.24,96.0
4.896149635314941,0.47,0.27,96.0
4.897170305252075,0.47,0.29,96.0
4.899080038070679,0.5,0.29,96.0
4.9001781940460205,0.5,0.29,96.0
4.908207416534424,0.0,0.01,96.0
4.909203052520752,0.49,0.01,96.0
4.911241769790649,0.49,0.01,96.0
4.912245512008667,0.49,0.01,96.0
4.914177417755127,0.47,-0.04,96.0
4.915182590484619,0.47,-0.13,96.0
4.917114734649658,0.47,-0.13,96.0
4.919083118438721,0.47,-0.13,96.0
4.9201884269714355,0.47,-0.17,96.0
4.92207145690918,0.51,-0.17,96.0
4.92337703704834,0.51,-0.17,96.0
4.925116300582886,0.51,-0.17,96.0
4.9262001514434814,0.5,-0.15,96.0
4.928125858306885,0.5,-0.15,96.0
4.929162979125977,0.5,-0.15,96.0
4.931113243103027,0.49,-0.14,96.0
4.9321959018707275,0.45,-0.09,96.0
4.934153318405151,0.45,-0.09,96.0
4.936076641082764,0.45,-0.09,96.0
4.937159538269043,0.47,-0.06,96.0
4.939084768295288,0.47,-0.06,96.0
4.940184116363525,0.47,-0.06,96.0
4.942115068435669,0.49,-0.05,96.0
4.943183183670044,0.52,-0.03,96.0
4.945123910903931,0.52,-0.03,96.0
4.946222305297852,0.52,-0.03,96.0
4.948116779327393,0.52,-0.02,96.0
4.94921612739563,0.49,-0.02,96.0
4.951124668121338,0.49,-0.02,96.0
4.953097820281982,0.48,-0.01,96.0
4.954288959503174,0.46,0.01,96.0
4.9551801681518555,0.46,0.01,96.0
4.957174777984619,0.46,0.01,96.0
4.958160400390625,0.46,0.01,96.0
4.960105657577515,0.49,0.01,96.0
4.961162090301514,0.49,0.01,96.0
4.963099002838135,0.5,0.01,96.0
4.964237689971924,0.5,0.01,96.0
4.966105222702026,0.49,0.01,96.0
4.967247724533081,0.49,0.01,96.0
4.969071388244629,0.49,0.01,96.0
4.970149278640747,0.47,0.01,96.0
4.971174716949463,0.47,0.01,96.0
4.973139524459839,0.46,0.01,96.0
4.974310874938965,0.46,0.01,96.0
4.976104497909546,0.47,0.0,96.0
4.977167129516602,0.47,0.0,96.0
4.979151487350464,0.47,0.0,96.0
4.980248212814331,0.47,0.0,96.0
4.982095003128052,0.51,0.0,96.0
4.983138799667358,0.51,0.0,96.0
4.985085725784302,0.51,0.0,96.0
4.986211776733398,0.51,0.0,96.0
4.988081216812134,0.5,0.0,96.0
4.989124059677124,0.5,0.0,96.0
4.9902565479278564,0.49,0.0,96.0
4.992224216461182,0.45,0.0,96.0
4.993167877197266,0.45,0.0,96.0
4.995104551315308,0.45,0.0,96.0
4.996183395385742,0.45,0.0,96.0
4.9981584548950195,0.45,0.0,96.0
4.999164819717407,0.48,0.0,96.0
5.00110387802124,0.48,0.0,96.0
5.00220799446106,0.49,0.0,96.0
5.004087448120117,0.5,0.0,96.0
5.005148887634277,0.51,0.0,96.0
5.006196022033691,0.5,0.0,96.0
5.008127450942993,0.5,0.0,96.0
5.00930118560791,0.46,0.0,96.0
5.011128187179565,0.46,0.0,96.0
5.012176990509033,0.46,0.0,96.0
5.0141191482543945,0.45,-0.0,96.0
5.015194892883301,0.45,-0.0,96.0
5.017128944396973,0.45,-0.0,96.0
5.018214225769043,0.45,-0.0,96.0
5.020143270492554,0.48,-0.0,96.0
5.022077560424805,0.48,-0.0,96.0
5.03019905090332,0.0,-0.0,96.0
5.031193733215332,0.45,-0.0,96.0
5.033135414123535,0.45,-0.0,96.0
5.035107374191284,0.45,-0.0,96.0
5.03615665435791,0.45,-0.0,96.0
5.038089275360107,0.47,-0.0,96.0
5.039139032363892,0.47,-0.0,96.0
5.041112899780273,0.47,-0.0,96.0
5.0421764850616455,0.48,0.0,96.0
5.044091463088989,0.5,0.0,96.0
5.0452117919921875,0.5,0.0,96.0
5.047078847885132,0.5,0.0,96.0
5.048141956329346,0.47,0.0,96.0
5.049189567565918,0.47,0.0,96.0
5.051192998886108,0.47,0.0,96.0
5.052269697189331,0.47,0.0,96.0
5.054112672805786,0.45,0.01,96.0
5.05522084236145,0.44,0.01,96.0
5.057129144668579,0.45,0.01,96.0
5.058174133300781,0.44,0.01,96.0
5.060102939605713,0.49,0.0,96.0
5.061161756515503,0.49,0.0,96.0
5.063091278076172,0.49,0.0,96.0
5.0641679763793945,0.5,0.0,96.0
5.066097974777222,0.5,0.0,96.0
5.067268133163452,0.5,-0.0,96.0
5.0691540241241455,0.5,-0.0,96.0
5.0702064037323,0.48,-0.0,96.0
5.07211709022522,0.47,-0.0,96.0
5.0732338428497314,0.46,-0.0,96.0
5.075109958648682,0.46,-0.0,96.0
5.07622218132019,0.47,-0.0,96.0
5.078135013580322,0.47,-0.0,96.0
5.079200744628906,0.48,-0.0,96.0
5.081301927566528,0.48,0.0,96.0
5.082180023193359,0.52,0.0,96.0
5.084109783172607,0.52,0.0,96.0
5.085170269012451,0.52,0.0,96.0
5.087102651596069,0.51,0.0,96.0
5.0881524085998535,0.51,0.0,96.0
5.090142726898193,0.51,0.0,96.0
5.091246128082275,0.5,0.0,96.0
5.093098878860474,0.47,0.0,96.0
5.094150543212891,0.47,0.0,96.0
5.095189332962036,0.46,0.0,96.0
5.097129583358765,0.46,0.0,96.0
5.098273754119873,0.49,0.0,96.0
5.100127935409546,0.49,0.0,96.0
5.101250886917114,0.51,0.0,96.0
5.103204727172852,0.51,0.0,96.0
5.105087995529175,0.54,0.0,96.0
5.1061155796051025,0.54,0.0,96.0
5.107133626937866,0.54,0.0,96.0
5.109107494354248,0.52,0.0,96.0
5.110212326049805,0.52,0.0,96.0
5.112102031707764,0.52,0.0,96.0
5.113139629364014,0.51,0.01,96.0
5.114324331283569,0.48,0.01,96.0
5.116117477416992,0.48,0.01,96.0
5.11725926399231,0.48,0.01,96.0
5.1191065311431885,0.48,0.01,96.0
5.120248317718506,0.51,0.01,96.0
5.128143787384033,0.0,0.03,96.0
5.1301586627960205,0.5,0.03,96.0
5.131180286407471,0.5,0.03,96.0
5.13308572769165,0.5,0.03,96.0
5.134192705154419,0.49,0.03,96.0
5.135241985321045,0.49,0.03,96.0
5.137119293212891,0.5,0.03,96.0
5.138296604156494,0.5,0.03,96.0
5.1401121616363525,0.5,0.03,96.0
5.141238689422607,0.51,0.03,96.0
5.1431097984313965,0.52,0.03,96.0
5.144188165664673,0.52,0.03,96.0
5.146123886108398,0.52,0.03,96.0
5.147181987762451,0.52,0.03,96.0
5.149089813232422,0.5,0.03,96.0
5.1501429080963135,0.5,0.03,96.0
5.151189804077148,0.48,0.03,96.0
5.153142929077148,0.48,0.03,96.0
5.154255628585815,0.46,0.03,96.0
5.156124830245972,0.46,0.03,96.0
5.157241106033325,0.46,0.03,96.0
5.15914511680603,0.5,0.02,96.0
5.160166025161743,0.5,0.02,96.0
5.1692845821380615,0.0,-0.0,96.0
5.1711530685424805,0.46,-0.0,96.0
5.173094749450684,0.46,-0.0,96.0
5.174274206161499,0.46,-0.0,96.0
5.176116704940796,0.45,-0.0,96.0
5.177306175231934,0.45,-0.01,96.0
5.179136037826538,0.49,-0.01,96.0
5.180200815200806,0.49,-0.01,96.0
5.182145595550537,0.49,-0.01,96.0
5.183242321014404,0.51,-0.01,96.0
5.185129404067993,0.51,-0.01,96.0
5.186270475387573,0.51,-0.01,96.0
5.1882264614105225,0.51,-0.01,96.0
5.1900999546051025,0.49,-0.02,96.0
5.191164493560791,0.49,-0.02,96.0
5.193108558654785,0.47,-0.02,96.0
5.194175720214844,0.46,-0.02,96.0
5.196133136749268,0.46,-0.02,96.0
5.197194337844849,0.46,-0.02,96.0
5.199118375778198,0.46,-0.02,96.0
5.200225830078125,0.49,-0.02,96.0
5.202146530151367,0.49,-0.02,96.0
5.203190326690674,0.5,-0.02,96.0
5.205149173736572,0.47,-0.01,96.0
5.2071568965911865,0.47,-0.01,96.0
5.20817232131958,0.47,-0.01,96.0
5.21010160446167,0.47,-0.01,96.0
5.211167097091675,0.43,-0.01,96.0
5.213123559951782,0.43,-0.01,96.0
5.214322805404663,0.41,-0.01,96.0
5.2161149978637695,0.41,-0.01,96.0
5.226216793060303,0.0,-0.01,96.0
5.228150367736816,0.69,-0.01,96.0
5.230106353759766,0.69,-0.01,96.0
5.231170177459717,0.69,-0.01,96.0
5.233113050460815,0.73,-0.01,96.0
5.234268426895142,0.73,-0.01,96.0
5.236161947250366,0.76,-0.0,96.0
5.237200021743774,0.83,-0.0,96.0
5.239130973815918,0.83,-0.0,96.0
5.240259647369385,0.84,-0.0,96.0
5.24216103553772,0.7,0.0,96.0
5.243189573287964,0.7,0.0,96.0
5.2451300621032715,0.69,0.0,96.0
5.246176481246948,0.69,0.0,96.0
5.248136758804321,0.61,-0.0,96.0
5.249187707901001,0.46,-0.0,96.0
5.25112247467041,0.45,-0.0,96.0
5.252259731292725,0.45,-0.0,96.0
5.254155397415161,0.36,-0.0,96.0
5.255216360092163,0.36,-0.0,96.0
5.2571728229522705,0.34,-0.0,96.0
5.259110927581787,0.37,-0.01,96.0
5.260173559188843,0.37,-0.01,96.0
5.26218056678772,0.37,-0.01,96.0
5.263178110122681,0.37,-0.0,96.0
5.265117168426514,0.38,-0.0,96.0
5.266187429428101,0.38,-0.0,96.0
5.2681403160095215,0.37,-0.0,96.0
5.269193887710571,0.35,0.0,96.0
5.2711217403411865,0.35,0.0,96.0
5.2721850872039795,0.35,0.0,96.0
5.274113178253174,0.35,0.0,96.0
5.281208753585815,0.0,0.0,96.0
5.283132314682007,0.51,0.0,96.0
5.284250736236572,0.51,0.0,96.0
5.286140203475952,0.51,0.0,96.0
5.28718900680542,0.51,0.0,96.0
5.289127826690674,0.51,-0.0,96.0
5.290208101272583,0.5,-0.0,96.0
5.2921812534332275,0.48,-0.0,96.0
5.293215274810791,0.48,-0.0,96.0
5.295181035995483,0.47,-0.0,96.0
5.297105312347412,0.47,-0.0,96.0
5.298151016235352,0.5,-0.01,96.0
5.300111293792725,0.5,-0.01,96.0
5.301178693771362,0.5,-0.01,96.0
5.303320407867432,0.51,-0.0,96.0
5.304190635681152,0.53,-0.0,96.0
5.306129693984985,0.53,-0.0,96.0
5.307202339172363,0.53,-0.0,96.0
5.309136629104614,0.5,-0.0,96.0
5.310279607772827,0.5,-0.0,96.0
5.312222003936768,0.5,-0.0,96.0
5.319202423095703,0.0,-0.0,96.0
5.320212364196777,0.53,-0.0,96.0
5.322145700454712,0.53,-0.0,96.0
5.324098825454712,0.53,-0.0,96.0
5.3252832889556885,0.53,-0.0,96.0
5.327112674713135,0.53,-0.0,96.0
5.32822322845459,0.53,-0.0,96.0
5.3301568031311035,0.53,-0.0,96.0
5.331307649612427,0.5,-0.0,96.0
5.333120107650757,0.5,-0.0,96.0
5.34111475944519,0.0,-0.01,96.0
5.342172384262085,0.54,-0.01,96.0
5.344113111495972,0.54,-0.01,96.0
5.34518027305603,0.54,-0.01,96.0
5.347148418426514,0.54,-0.01,96.0
5.34819221496582,0.53,-0.01,96.0
5.3501269817352295,0.53,-0.01,96.0
5.351255655288696,0.53,-0.01,96.0
5.353145122528076,0.49,-0.01,96.0
5.354219198226929,0.49,-0.01,96.0
5.356148719787598,0.49,-0.01,96.0
5.358114242553711,0.49,-0.01,96.0
5.35918116569519,0.52,-0.01,96.0
5.3611085414886475,0.52,-0.01,96.0
5.362173318862915,0.55,-0.01,96.0
5.364120721817017,0.55,-0.0,96.0
5.365186452865601,0.55,-0.0,96.0
5.367209196090698,0.55,-0.0,96.0
5.368340969085693,0.55,-0.0,96.0
5.370142936706543,0.52,-0.0,96.0
5.371202230453491,0.52,-0.0,96.0
5.3731465339660645,0.52,-0.0,96.0
5.380147695541382,0.0,0.0,96.0
5.3813769817352295,0.56,0.0,96.0
5.383111238479614,0.56,0.0,96.0
5.384178876876831,0.56,0.0,96.0
5.3861143589019775,0.56,0.0,96.0
5.387221336364746,0.56,0.0,96.0
5.388212203979492,0.56,0.0,96.0
5.390222072601318,0.56,0.0,96.0
5.391272783279419,0.53,0.01,96.0
5.393158197402954,0.53,0.01,96.0
5.394195795059204,0.53,0.01,96.0
5.396146297454834,0.52,0.01,96.0
5.3971898555755615,0.54,0.02,96.0
5.399136543273926,0.54,0.02,96.0
5.400194883346558,0.54,0.02,96.0
5.402149677276611,0.54,0.02,96.0
5.403231620788574,0.57,0.02,96.0
5.405104637145996,0.57,0.02,96.0
5.406212091445923,0.57,0.02,96.0
5.407199144363403,0.55,0.02,96.0
5.409148693084717,0.55,0.02,96.0
5.410268306732178,0.55,0.02,96.0
5.412163734436035,0.55,0.02,96.0
5.413204908370972,0.53,0.02,96.0
5.415184497833252,0.53,0.02,96.0
5.416198015213013,0.52,0.01,96.0
5.418146848678589,0.52,0.01,96.0
5.419194936752319,0.57,0.01,96.0
5.421126842498779,0.57,0.01,96.0
5.422220945358276,0.57,0.01,96.0
5.4241015911102295,0.58,0.01,96.0
5.425178527832031,0.58,0.01,96.0
5.426198959350586,0.57,0.01,96.0
5.428143501281738,0.57,0.01,96.0
5.42928147315979,0.57,0.01,96.0
5.431135892868042,0.54,0.01,96.0
5.43221116065979,0.54,0.01,96.0
5.434147834777832,0.53,0.01,96.0
5.4351983070373535,0.54,0.01,96.0
5.437124967575073,0.54,0.01,96.0
5.43818473815918,0.54,0.01,96.0
5.440114736557007,0.54,0.01,96.0
5.441156387329102,0.58,0.0,96.0
5.442284107208252,0.58,0.0,96.0
5.444177627563477,0.59,-0.0,96.0
5.446138858795166,0.59,-0.01,96.0
5.447301864624023,0.57,-0.01,96.0
5.449116230010986,0.56,-0.01,96.0
5.450213432312012,0.56,-0.01,96.0
5.4521565437316895,0.52,-0.02,96.0
5.453199625015259,0.52,-0.02,96.0
5.455145597457886,0.52,-0.02,96.0
5.4561991691589355,0.52,-0.02,96.0
5.4581663608551025,0.54,-0.02,96.0
5.459404706954956,0.54,-0.02,96.0
5.4611496925354,0.56,-0.02,96.0
5.463110446929932,0.6,-0.02,96.0
5.464248180389404,0.6,-0.02,96.0
5.466143369674683,0.6,-0.02,96.0
5.467284440994263,0.6,-0.02,96.0
5.469139814376831,0.58,-0.02,96.0
5.470204830169678,0.58,-0.02,96.0
5.472156047821045,0.56,-0.02,96.0
5.47322154045105,0.56,-0.03,96.0
5.475142955780029,0.55,-0.03,96.0
5.484259128570557,0.0,-0.02,96.0
5.486140012741089,0.6,-0.02,96.0
5.487189531326294,0.6,-0.02,96.0
5.489131450653076,0.6,-0.02,96.0
5.490276575088501,0.58,-0.02,96.0
5.492150068283081,0.58,-0.02,96.0
5.493211030960083,0.54,-0.02,96.0
5.495140075683594,0.54,-0.02,96.0
5.4962804317474365,0.53,-0.02,96.0
5.498151779174805,0.55,-0.04,96.0
5.499227046966553,0.55,-0.04,96.0
5.501237392425537,0.55,-0.04,96.0
5.503120183944702,0.56,-0.07,96.0
5.5041892528533936,0.55,-0.07,96.0
5.506122589111328,0.55,-0.07,96.0
5.507193088531494,0.55,-0.07,96.0
5.509147882461548,0.51,-0.08,96.0
5.511197328567505,0.51,-0.08,96.0
5.51220440864563,0.5,-0.08,96.0
5.5132224559783936,0.5,-0.08,96.0
5.515155792236328,0.49,-0.05,96.0
5.516213893890381,0.49,-0.05,96.0
5.518179178237915,0.49,-0.02,96.0
5.5192551612854,0.54,0.13,96.0
5.52115797996521,0.54,0.13,96.0
5.522211074829102,0.54,0.13,96.0
5.524236440658569,0.54,0.13,96.0
5.525286912918091,0.54,0.18,93.0
5.527156591415405,0.54,0.23,93.0
5.528198480606079,0.52,0.27,93.0
5.530140399932861,0.52,0.27,93.0
5.531240463256836,0.47,0.3,93.0
5.533124923706055,0.47,0.3,93.0
5.534231662750244,0.47,0.3,93.0
5.5411951541900635,0.0,0.05,93.0
5.5423126220703125,0.51,0.05,93.0
5.544150352478027,0.51,0.05,93.0
5.545287132263184,0.51,0.05,93.0
5.547172784805298,0.49,-0.11,93.0
5.548235177993774,0.49,-0.11,93.0
5.550290822982788,0.49,-0.11,93.0
5.5521156787872314,0.49,-0.11,93.0
5.553234815597534,0.45,-0.18,93.0
5.555126905441284,0.45,-0.18,93.0
5.556255102157593,0.45,-0.18,93.0
5.558145523071289,0.45,-0.17,93.0
5.559401988983154,0.48,-0.17,93.0
5.561154127120972,0.48,-0.17,93.0
5.562266111373901,0.5,-0.17,93.0
5.5641539096832275,0.51,-0.13,93.0
5.56521463394165,0.51,-0.13,93.0
5.5672736167907715,0.51,-0.13,93.0
5.569111108779907,0.51,-0.09,93.0
5.5703747272491455,0.48,-0.09,93.0
5.572123765945435,0.48,-0.09,93.0
5.573240756988525,0.47,-0.08,93.0
5.5751633644104,0.45,-0.04,93.0
5.576215982437134,0.45,-0.04,93.0
5.578145980834961,0.45,-0.04,93.0
5.5792763233184814,0.46,-0.04,93.0
5.581220865249634,0.49,-0.02,93.0
5.582226037979126,0.49,-0.02,93.0
5.58415412902832,0.5,-0.01,93.0
5.586124420166016,0.49,-0.0,93.0
5.587234735488892,0.49,-0.0,93.0
5.589129686355591,0.49,-0.0,93.0
5.5902793407440186,0.49,-0.0,93.0
5.592162370681763,0.46,0.01,93.0
5.593237638473511,0.46,0.01,93.0
5.5951149463653564,0.45,0.01,93.0
5.596220254898071,0.45,0.01,93.0
5.597227334976196,0.48,0.01,93.0
5.599153995513916,0.48,0.01,93.0
5.600209474563599,0.48,0.01,93.0
5.6021668910980225,0.51,0.0,93.0
5.604152202606201,0.51,0.0,93.0
5.605146408081055,0.51,0.0,93.0
5.606202602386475,0.51,0.0,93.0
5.608139753341675,0.49,0.0,93.0
5.609245538711548,0.49,0.0,93.0
5.61111855506897,0.48,0.0,93.0
5.612187385559082,0.47,0.0,93.0
5.613222360610962,0.45,0.01,93.0
5.615176439285278,0.46,0.01,93.0
5.616287708282471,0.45,0.01,93.0
5.618158578872681,0.46,0.01,93.0
5.619211196899414,0.5,0.01,93.0
5.621147871017456,0.5,0.01,93.0
5.622265100479126,0.5,0.01,93.0
5.624145030975342,0.5,0.01,93.0
5.62522554397583,0.5,0.01,93.0
5.6271278858184814,0.5,0.01,93.0
5.628204345703125,0.5,0.01,93.0
5.630133152008057,0.46,0.01,93.0
5.631221294403076,0.45,0.01,93.0
5.63223123550415,0.45,0.01,93.0
5.634227514266968,0.45,0.01,93.0
5.635250091552734,0.45,0.0,93.0
5.643268823623657,0.0,0.0,93.0
5.645155906677246,0.5,0.0,93.0
5.646209716796875,0.5,0.0,93.0
5.64813232421875,0.5,0.0,93.0
5.649189710617065,0.49,0.0,93.0
5.650243759155273,0.49,0.0,93.0
5.652172088623047,0.48,0.0,93.0
5.6532206535339355,0.45,0.0,93.0
5.655157566070557,0.45,0.0,93.0
5.656266927719116,0.45,0.0,93.0
5.658174753189087,0.48,0.0,93.0
5.659219026565552,0.48,0.0,93.0
5.661135911941528,0.48,0.0,93.0
5.662221193313599,0.48,0.0,93.0
5.664155960083008,0.5,-0.0,93.0
5.665209054946899,0.5,-0.0,93.0
5.6671974658966064,0.49,-0.0,93.0
5.668292999267578,0.5,-0.0,93.0
5.670348167419434,0.46,-0.0,93.0
5.67122220993042,0.46,-0.0,93.0
5.673164129257202,0.46,-0.0,93.0
5.684343576431274,0.0,0.01,93.0
5.686245441436768,0.5,0.01,93.0
5.687231540679932,0.49,0.01,93.0
5.68916130065918,0.49,0.01,93.0
5.690224647521973,0.47,0.01,93.0
5.6922080516815186,0.47,0.01,93.0
5.700281381607056,0.0,0.0,93.0
5.702167272567749,0.51,0.0,93.0
5.703211069107056,0.51,0.0,93.0
5.705122709274292,0.51,0.0,93.0
5.706239938735962,0.51,0.0,93.0
5.707238674163818,0.49,0.0,93.0
5.709169387817383,0.49,0.0,93.0
5.710291385650635,0.49,0.0,93.0
5.712226152420044,0.47,0.0,93.0
5.7132275104522705,0.44,0.01,93.0
5.715186357498169,0.44,0.01,93.0
5.7162065505981445,0.44,0.01,93.0
5.7181408405303955,0.44,0.01,93.0
5.719204664230347,0.47,0.0,93.0
5.72113823890686,0.47,0.0,93.0
5.722207069396973,0.49,0.0,93.0
5.724128007888794,0.49,0.0,93.0
5.725193977355957,0.5,0.0,93.0
5.726241111755371,0.5,0.0,93.0
5.728175401687622,0.5,0.0,93.0
5.729220390319824,0.5,0.0,93.0
5.731168031692505,0.47,0.0,93.0
5.732229471206665,0.47,0.0,93.0
5.734161853790283,0.47,0.0,93.0
5.7352728843688965,0.46,0.0,93.0
5.7371509075164795,0.46,0.0,93.0
5.738201379776001,0.46,0.0,93.0
5.740121364593506,0.47,0.0,93.0
5.7412097454071045,0.52,0.0,93.0
5.74222993850708,0.52,0.0,93.0
5.744172096252441,0.52,0.0,93.0
5.745225667953491,0.52,0.0,93.0
5.747222661972046,0.52,0.0,93.0
5.7482216358184814,0.52,0.0,93.0
5.7501842975616455,0.51,0.0,93.0
5.751268148422241,0.51,0.01,93.0
5.753159046173096,0.48,0.01,93.0
5.754223346710205,0.48,0.01,93.0
5.756165027618408,0.48,0.01,93.0
5.757244825363159,0.49,0.01,93.0
5.759234189987183,0.5,0.01,93.0
5.760169506072998,0.5,0.01,93.0
5.761241912841797,0.51,0.01,93.0
5.7632410526275635,0.53,0.02,93.0
5.764324426651001,0.53,0.02,93.0
5.766149997711182,0.53,0.02,93.0
5.767383098602295,0.53,0.02,93.0
5.769179582595825,0.53,0.03,93.0
5.770216464996338,0.5,0.03,93.0
5.772138357162476,0.5,0.03,93.0
5.773183107376099,0.5,0.03,93.0
5.775138854980469,0.49,0.03,93.0
5.776205539703369,0.49,0.03,93.0
5.778127431869507,0.5,0.04,93.0
5.779199123382568,0.54,0.04,93.0
5.780244588851929,0.54,0.04,93.0
5.782185792922974,0.54,0.04,93.0
5.7832136154174805,0.54,0.04,93.0
5.785158634185791,0.54,0.04,93.0
5.786234617233276,0.54,0.03,93.0
5.788194894790649,0.53,0.03,93.0
5.789205074310303,0.52,0.03,93.0
5.791150331497192,0.48,0.02,93.0
5.7921929359436035,0.48,0.02,93.0
5.794125080108643,0.48,0.02,93.0
5.8011579513549805,0.0,-0.0,93.0
5.802258253097534,0.54,-0.0,93.0
5.804142713546753,0.54,-0.0,93.0
5.8052051067352295,0.54,-0.0,93.0
5.807188510894775,0.49,-0.01,93.0
5.808219909667969,0.49,-0.01,93.0
5.810211420059204,0.49,-0.01,93.0
5.8112897872924805,0.49,-0.01,93.0
5.813190460205078,0.44,-0.01,93.0
5.814263105392456,0.44,-0.01,93.0
5.816171169281006,0.44,-0.01,93.0
5.8181376457214355,0.46,-0.01,93.0
5.819242238998413,0.46,-0.01,93.0
5.821143388748169,0.46,-0.01,93.0
5.82224702835083,0.47,-0.01,93.0
5.8241636753082275,0.49,-0.01,93.0
5.825227499008179,0.49,-0.01,93.0
5.827292442321777,0.49,-0.01,93.0
5.828221082687378,0.47,-0.02,93.0
5.830190420150757,0.46,-0.02,93.0
5.831270456314087,0.46,-0.02,93.0
5.833178997039795,0.46,-0.02,93.0
5.834319591522217,0.45,-0.02,93.0
5.836252689361572,0.45,-0.02,93.0
5.8381288051605225,0.45,-0.02,93.0
5.8392040729522705,0.45,-0.02,93.0
5.841155767440796,0.5,-0.02,93.0
5.842245817184448,0.5,-0.02,93.0
5.844175100326538,0.5,-0.02,93.0
5.845228910446167,0.48,-0.01,93.0
5.847243785858154,0.48,-0.01,93.0
5.848239421844482,0.48,-0.01,93.0
5.850174903869629,0.48,-0.01,93.0
5.85124135017395,0.45,-0.01,93.0
5.853178977966309,0.45,-0.01,93.0
5.855135679244995,0.44,-0.01,93.0
5.85627293586731,0.47,-0.01,93.0
5.858165264129639,0.47,-0.01,93.0
5.8592212200164795,0.47,-0.01,93.0
5.861170291900635,0.47,-0.01,93.0
5.862259864807129,0.5,-0.01,93.0
5.864165544509888,0.5,-0.01,93.0
5.865235328674316,0.5,-0.01,93.0
5.867218732833862,0.47,-0.01,93.0
5.868250131607056,0.47,-0.01,93.0
5.870206594467163,0.47,-0.01,93.0
5.8721349239349365,0.47,-0.01,93.0
5.879271745681763,0.0,-0.01,93.0
5.881189346313477,0.45,-0.01,93.0
5.882205247879028,0.46,-0.01,93.0
5.884151935577393,0.46,-0.01,93.0
5.885287523269653,0.47,-0.01,93.0
5.887185573577881,0.47,-0.01,93.0
5.88823938369751,0.48,-0.01,93.0
5.890240669250488,0.51,-0.0,93.0
5.8913421630859375,0.51,-0.0,93.0
5.893198490142822,0.54,-0.0,93.0
5.894243955612183,0.54,0.0,93.0
5.896167755126953,0.69,0.0,93.0
5.897299528121948,0.69,0.0,93.0
5.899186849594116,0.69,0.0,93.0
5.900232553482056,0.83,0.0,93.0
5.902176380157471,0.83,0.0,93.0
5.903247833251953,0.83,0.0,93.0
5.9052019119262695,0.85,0.0,93.0
5.906226873397827,0.8,0.0,93.0
5.908140182495117,0.79,0.0,93.0
5.909251689910889,0.79,0.0,93.0
5.911153078079224,0.79,0.0,93.0
5.912205457687378,0.62,0.0,93.0
5.913261413574219,0.62,0.0,93.0
5.915240287780762,0.52,0.0,93.0
5.916369438171387,0.52,-0.0,93.0
5.918234586715698,0.41,-0.0,93.0
5.919315338134766,0.41,-0.0,93.0
5.921248912811279,0.41,-0.0,93.0
5.923202037811279,0.38,-0.0,93.0
5.924291610717773,0.38,-0.0,93.0
5.92618989944458,0.38,-0.0,93.0
5.927253723144531,0.38,-0.0,93.0
5.929210424423218,0.36,-0.0,93.0
5.930280685424805,0.35,-0.0,93.0
5.93219518661499,0.33,-0.0,93.0
5.9333460330963135,0.32,-0.0,93.0
5.935215711593628,0.32,-0.0,93.0
5.936259031295776,0.32,-0.0,93.0
5.9382545948028564,0.32,-0.0,93.0
5.939306020736694,0.38,0.0,93.0
5.941291570663452,0.38,0.0,93.0
5.94231104850769,0.42,0.0,93.0
5.944185495376587,0.42,-0.0,93.0
5.9453911781311035,0.45,-0.0,93.0
5.947296619415283,0.45,-0.0,93.0
5.949133634567261,0.45,-0.0,93.0
5.950263977050781,0.45,-0.0,93.0
5.952162265777588,0.45,-0.0,93.0
5.9532294273376465,0.44,-0.0,93.0
5.955158948898315,0.44,-0.01,93.0
5.95630145072937,0.47,-0.01,93.0
5.958181858062744,0.47,-0.01,93.0
5.959235668182373,0.47,-0.01,93.0
5.9611876010894775,0.5,-0.01,93.0
5.962287187576294,0.5,-0.01,93.0
5.9642555713653564,0.51,-0.0,93.0
5.966143846511841,0.51,-0.0,93.0
5.967271566390991,0.49,0.0,93.0
5.968325853347778,0.48,0.0,93.0
5.9702959060668945,0.48,0.0,93.0
5.971316814422607,0.48,0.0,93.0
5.973177433013916,0.46,0.0,93.0
5.97422981262207,0.46,0.0,93.0
5.97619104385376,0.46,0.0,93.0
5.977301120758057,0.49,0.0,93.0
5.979187726974487,0.49,0.0,93.0
5.980229377746582,0.49,0.0,93.0
5.982168436050415,0.5,0.0,93.0
5.983203649520874,0.53,-0.0,93.0
5.985204696655273,0.53,-0.0,93.0
5.986221790313721,0.53,-0.0,93.0
5.988170623779297,0.53,-0.0,93.0
5.990204334259033,0.52,-0.0,93.0
5.991257905960083,0.49,-0.0,93.0
5.992261648178101,0.48,-0.0,93.0
5.9941840171813965,0.48,-0.01,93.0
5.995253086090088,0.48,-0.01,93.0
5.997274160385132,0.48,-0.01,93.0
5.999161243438721,0.48,-0.01,93.0
6.000227928161621,0.54,-0.01,93.0
6.002166032791138,0.54,-0.01,93.0
6.003256320953369,0.54,-0.01,93.0
6.005186319351196,0.53,-0.01,93.0
6.006240367889404,0.53,-0.01,93.0
6.008192300796509,0.53,-0.01,93.0
6.00927996635437,0.53,-0.01,93.0
6.011197805404663,0.49,-0.01,93.0
6.012351989746094,0.49,-0.01,93.0
6.014222145080566,0.49,-0.01,93.0
6.016141653060913,0.49,-0.01,93.0
6.017304420471191,0.49,-0.01,93.0
6.019164323806763,0.52,-0.01,93.0
6.02028751373291,0.52,-0.01,93.0
6.022165298461914,0.55,-0.01,93.0
6.023308277130127,0.55,-0.01,93.0
6.025187253952026,0.55,-0.01,93.0
6.026409149169922,0.55,-0.0,93.0
6.028172969818115,0.52,-0.0,93.0
6.029343605041504,0.52,-0.0,93.0
6.031204700469971,0.52,-0.0,93.0
